# == pyFAI calibration ==
# Distance Sample to Detector: 0.5717115570308332 m
# PONI: 1.291e-01, 1.314e-01 m
# Rotations: 0.000000 0.000000 0.000000 rad
# 
# == Fit2d calibration ==
# Distance Sample-beamCenter: 571.712 mm
# Center: x=763.724, y=750.752 pix
# Tilt: 0.000 deg  TiltPlanRot: 0.000 deg
# 
# Detector Pilatus CdTe 2M	 PixelSize= 1.720e-04, 1.720e-04 m
#    Detector has a mask: True 
#    Detector has a dark current: False 
#    detector has a flat field: False 
# 
# Wavelength: 1.17e-11 m
# Mask applied: user provided
# Dark current applied: False
# Flat field applied: False
# Polarization factor: None
# Normalization factor: 1.0
# --> C:/Users/tdouglas/Documents/SHS/data_for_kaushik/Gain_corrected\NiAl8_pt003sec_00000.xy
#       2th_deg             I 
  3.976377e-03    2.074129e+00
  1.192913e-02    3.175973e+00
  1.988189e-02    3.803046e+00
  2.783464e-02    3.574886e+00
  3.578739e-02    2.883674e+00
  4.374015e-02    2.793135e+00
  5.169290e-02    3.408639e+00
  5.964566e-02    3.709923e+00
  6.759841e-02    3.506260e+00
  7.555116e-02    3.298745e+00
  8.350392e-02    3.157171e+00
  9.145667e-02    3.120901e+00
  9.940943e-02    3.397685e+00
  1.073622e-01    3.725547e+00
  1.153149e-01    3.705452e+00
  1.232677e-01    3.400225e+00
  1.312204e-01    3.318347e+00
  1.391732e-01    3.462045e+00
  1.471260e-01    3.526168e+00
  1.550787e-01    3.540365e+00
  1.630315e-01    3.645601e+00
  1.709842e-01    3.933774e+00
  1.789370e-01    3.712462e+00
  1.868897e-01    3.516511e+00
  1.948425e-01    3.466603e+00
  2.027952e-01    3.478106e+00
  2.107480e-01    3.446625e+00
  2.187007e-01    3.320741e+00
  2.266535e-01    3.409055e+00
  2.346062e-01    3.413205e+00
  2.425590e-01    3.374648e+00
  2.505118e-01    3.315202e+00
  2.584645e-01    3.283365e+00
  2.664173e-01    3.337550e+00
  2.743700e-01    3.361922e+00
  2.823228e-01    3.282473e+00
  2.902755e-01    3.308707e+00
  2.982283e-01    3.522455e+00
  3.061810e-01    3.779535e+00
  3.141338e-01    3.859028e+00
  3.220865e-01    3.884982e+00
  3.300393e-01    3.811820e+00
  3.379921e-01    3.793201e+00
  3.459448e-01    3.807609e+00
  3.538976e-01    3.893203e+00
  3.618503e-01    3.842906e+00
  3.698031e-01    3.925906e+00
  3.777558e-01    3.954539e+00
  3.857086e-01    3.905485e+00
  3.936613e-01    3.889530e+00
  4.016141e-01    3.908811e+00
  4.095668e-01    4.059993e+00
  4.175196e-01    4.171124e+00
  4.254723e-01    4.335259e+00
  4.334251e-01    4.275647e+00
  4.413779e-01    4.115200e+00
  4.493306e-01    4.039526e+00
  4.572834e-01    4.031731e+00
  4.652361e-01    4.114233e+00
  4.731889e-01    4.285449e+00
  4.811416e-01    4.460568e+00
  4.890944e-01    4.480716e+00
  4.970471e-01    4.532687e+00
  5.049999e-01    4.652569e+00
  5.129526e-01    4.802974e+00
  5.209054e-01    5.054750e+00
  5.288582e-01    5.382387e+00
  5.368109e-01    5.570060e+00
  5.447637e-01    5.835438e+00
  5.527164e-01    6.126070e+00
  5.606692e-01    6.306040e+00
  5.686219e-01    6.318874e+00
  5.765747e-01    6.387152e+00
  5.845274e-01    6.508633e+00
  5.924802e-01    6.497752e+00
  6.004329e-01    6.532592e+00
  6.083857e-01    6.481287e+00
  6.163384e-01    6.303331e+00
  6.242912e-01    6.190049e+00
  6.322440e-01    6.126154e+00
  6.401967e-01    5.985626e+00
  6.481495e-01    6.130688e+00
  6.561022e-01    6.313023e+00
  6.640550e-01    6.456685e+00
  6.720077e-01    6.351159e+00
  6.799605e-01    6.318202e+00
  6.879132e-01    6.404940e+00
  6.958660e-01    6.321860e+00
  7.038187e-01    6.279968e+00
  7.117715e-01    6.391051e+00
  7.197243e-01    6.621742e+00
  7.276770e-01    6.672926e+00
  7.356298e-01    6.593484e+00
  7.435825e-01    6.654315e+00
  7.515353e-01    6.445605e+00
  7.594880e-01    6.295817e+00
  7.674408e-01    6.274465e+00
  7.753935e-01    6.407474e+00
  7.833463e-01    6.403905e+00
  7.912990e-01    6.433697e+00
  7.992518e-01    6.413406e+00
  8.072045e-01    6.304346e+00
  8.151573e-01    6.408592e+00
  8.231101e-01    6.438767e+00
  8.310628e-01    6.549193e+00
  8.390156e-01    6.517517e+00
  8.469683e-01    6.547984e+00
  8.549211e-01    6.698874e+00
  8.628738e-01    6.761256e+00
  8.708266e-01    6.667516e+00
  8.787793e-01    6.401710e+00
  8.867321e-01    6.308460e+00
  8.946848e-01    6.552734e+00
  9.026376e-01    6.769879e+00
  9.105904e-01    6.807775e+00
  9.185431e-01    6.707336e+00
  9.264959e-01    6.612528e+00
  9.344486e-01    6.665321e+00
  9.424014e-01    6.646821e+00
  9.503541e-01    6.718054e+00
  9.583069e-01    6.609604e+00
  9.662596e-01    6.501841e+00
  9.742124e-01    6.640572e+00
  9.821651e-01    6.794640e+00
  9.901179e-01    6.808959e+00
  9.980706e-01    6.722942e+00
  1.006023e+00    6.685027e+00
  1.013976e+00    6.751916e+00
  1.021929e+00    6.698869e+00
  1.029882e+00    6.632776e+00
  1.037834e+00    6.617362e+00
  1.045787e+00    6.722609e+00
  1.053740e+00    6.779078e+00
  1.061693e+00    6.608890e+00
  1.069645e+00    6.534313e+00
  1.077598e+00    6.490973e+00
  1.085551e+00    6.549096e+00
  1.093504e+00    6.595342e+00
  1.101456e+00    6.669230e+00
  1.109409e+00    6.716193e+00
  1.117362e+00    6.701743e+00
  1.125315e+00    6.730567e+00
  1.133267e+00    6.721145e+00
  1.141220e+00    6.718396e+00
  1.149173e+00    6.701344e+00
  1.157126e+00    6.732169e+00
  1.165078e+00    6.667940e+00
  1.173031e+00    6.677084e+00
  1.180984e+00    6.710326e+00
  1.188937e+00    6.644131e+00
  1.196890e+00    6.507257e+00
  1.204842e+00    6.455551e+00
  1.212795e+00    6.578349e+00
  1.220748e+00    6.792668e+00
  1.228701e+00    6.943074e+00
  1.236653e+00    6.884880e+00
  1.244606e+00    6.849632e+00
  1.252559e+00    6.869268e+00
  1.260512e+00    6.796553e+00
  1.268464e+00    6.721486e+00
  1.276417e+00    6.688468e+00
  1.284370e+00    6.806387e+00
  1.292323e+00    6.834921e+00
  1.300275e+00    6.792837e+00
  1.308228e+00    6.759536e+00
  1.316181e+00    6.786105e+00
  1.324134e+00    6.803025e+00
  1.332086e+00    6.796669e+00
  1.340039e+00    6.786521e+00
  1.347992e+00    6.667365e+00
  1.355945e+00    6.606559e+00
  1.363897e+00    6.654971e+00
  1.371850e+00    6.832663e+00
  1.379803e+00    6.812585e+00
  1.387756e+00    6.807651e+00
  1.395708e+00    6.782027e+00
  1.403661e+00    6.855377e+00
  1.411614e+00    7.051043e+00
  1.419567e+00    7.092034e+00
  1.427519e+00    6.960511e+00
  1.435472e+00    6.880274e+00
  1.443425e+00    6.982728e+00
  1.451378e+00    7.033235e+00
  1.459330e+00    7.051204e+00
  1.467283e+00    7.097842e+00
  1.475236e+00    7.251830e+00
  1.483189e+00    7.285205e+00
  1.491141e+00    7.245890e+00
  1.499094e+00    7.128050e+00
  1.507047e+00    7.029672e+00
  1.515000e+00    7.150394e+00
  1.522952e+00    7.276411e+00
  1.530905e+00    7.395458e+00
  1.538858e+00    7.337446e+00
  1.546811e+00    7.226496e+00
  1.554763e+00    7.160915e+00
  1.562716e+00    7.201803e+00
  1.570669e+00    7.155032e+00
  1.578622e+00    7.165370e+00
  1.586574e+00    7.076037e+00
  1.594527e+00    7.061246e+00
  1.602480e+00    7.121690e+00
  1.610433e+00    7.249675e+00
  1.618385e+00    7.292374e+00
  1.626338e+00    7.339981e+00
  1.634291e+00    7.261441e+00
  1.642244e+00    7.210816e+00
  1.650196e+00    7.163756e+00
  1.658149e+00    7.128726e+00
  1.666102e+00    7.226960e+00
  1.674055e+00    7.259757e+00
  1.682008e+00    7.312132e+00
  1.689960e+00    7.331938e+00
  1.697913e+00    7.375294e+00
  1.705866e+00    7.351661e+00
  1.713819e+00    7.372850e+00
  1.721771e+00    7.317676e+00
  1.729724e+00    7.334840e+00
  1.737677e+00    7.321785e+00
  1.745630e+00    7.243112e+00
  1.753582e+00    7.173651e+00
  1.761535e+00    7.211546e+00
  1.769488e+00    7.408010e+00
  1.777441e+00    7.548975e+00
  1.785393e+00    7.505070e+00
  1.793346e+00    7.409612e+00
  1.801299e+00    7.325504e+00
  1.809252e+00    7.327091e+00
  1.817204e+00    7.334123e+00
  1.825157e+00    7.360991e+00
  1.833110e+00    7.397142e+00
  1.841063e+00    7.406103e+00
  1.849015e+00    7.455585e+00
  1.856968e+00    7.471608e+00
  1.864921e+00    7.503195e+00
  1.872874e+00    7.468370e+00
  1.880826e+00    7.417646e+00
  1.888779e+00    7.446781e+00
  1.896732e+00    7.501552e+00
  1.904685e+00    7.579195e+00
  1.912637e+00    7.574277e+00
  1.920590e+00    7.529310e+00
  1.928543e+00    7.523482e+00
  1.936496e+00    7.672922e+00
  1.944448e+00    7.767871e+00
  1.952401e+00    7.713184e+00
  1.960354e+00    7.651546e+00
  1.968307e+00    7.782978e+00
  1.976259e+00    7.778828e+00
  1.984212e+00    7.713825e+00
  1.992165e+00    7.638593e+00
  2.000118e+00    7.690150e+00
  2.008070e+00    7.772820e+00
  2.016023e+00    7.869852e+00
  2.023976e+00    7.931897e+00
  2.031929e+00    7.829884e+00
  2.039881e+00    7.852887e+00
  2.047834e+00    7.736198e+00
  2.055787e+00    7.782228e+00
  2.063740e+00    7.883557e+00
  2.071692e+00    8.022239e+00
  2.079645e+00    8.035232e+00
  2.087598e+00    8.054987e+00
  2.095551e+00    8.018786e+00
  2.103503e+00    8.057492e+00
  2.111456e+00    8.012568e+00
  2.119409e+00    8.015196e+00
  2.127362e+00    8.010492e+00
  2.135314e+00    8.048316e+00
  2.143267e+00    8.046862e+00
  2.151220e+00    8.110312e+00
  2.159173e+00    8.151704e+00
  2.167126e+00    8.158954e+00
  2.175078e+00    8.144846e+00
  2.183031e+00    8.333746e+00
  2.190984e+00    8.419305e+00
  2.198937e+00    8.325624e+00
  2.206889e+00    8.181620e+00
  2.214842e+00    8.014930e+00
  2.222795e+00    8.070772e+00
  2.230748e+00    8.140179e+00
  2.238700e+00    8.193516e+00
  2.246653e+00    8.253664e+00
  2.254606e+00    8.428253e+00
  2.262559e+00    8.517598e+00
  2.270511e+00    8.474921e+00
  2.278464e+00    8.353187e+00
  2.286417e+00    8.233427e+00
  2.294370e+00    8.243342e+00
  2.302322e+00    8.431468e+00
  2.310275e+00    8.628941e+00
  2.318228e+00    8.678250e+00
  2.326181e+00    8.649542e+00
  2.334133e+00    8.565884e+00
  2.342086e+00    8.530724e+00
  2.350039e+00    8.439054e+00
  2.357992e+00    8.443202e+00
  2.365944e+00    8.528316e+00
  2.373897e+00    8.566106e+00
  2.381850e+00    8.702987e+00
  2.389803e+00    8.768679e+00
  2.397755e+00    8.724152e+00
  2.405708e+00    8.600938e+00
  2.413661e+00    8.672429e+00
  2.421614e+00    8.829601e+00
  2.429566e+00    8.906831e+00
  2.437519e+00    8.843854e+00
  2.445472e+00    8.810515e+00
  2.453425e+00    8.887667e+00
  2.461377e+00    8.997231e+00
  2.469330e+00    9.118025e+00
  2.477283e+00    9.215256e+00
  2.485236e+00    9.297688e+00
  2.493188e+00    9.363509e+00
  2.501141e+00    9.368559e+00
  2.509094e+00    9.395049e+00
  2.517047e+00    9.432664e+00
  2.524999e+00    9.522532e+00
  2.532952e+00    9.614923e+00
  2.540905e+00    9.611845e+00
  2.548858e+00    9.595899e+00
  2.556810e+00    9.637940e+00
  2.564763e+00    9.753917e+00
  2.572716e+00    9.795485e+00
  2.580669e+00    9.800097e+00
  2.588621e+00    9.918007e+00
  2.596574e+00    9.903417e+00
  2.604527e+00    9.884428e+00
  2.612480e+00    9.880216e+00
  2.620433e+00    9.943332e+00
  2.628385e+00    1.003093e+01
  2.636338e+00    1.018851e+01
  2.644291e+00    1.021736e+01
  2.652244e+00    1.027932e+01
  2.660196e+00    1.039064e+01
  2.668149e+00    1.050162e+01
  2.676102e+00    1.044188e+01
  2.684055e+00    1.040150e+01
  2.692007e+00    1.050567e+01
  2.699960e+00    1.065152e+01
  2.707913e+00    1.072571e+01
  2.715866e+00    1.062933e+01
  2.723818e+00    1.068005e+01
  2.731771e+00    1.078952e+01
  2.739724e+00    1.091494e+01
  2.747677e+00    1.109462e+01
  2.755629e+00    1.130867e+01
  2.763582e+00    1.157865e+01
  2.771535e+00    1.183447e+01
  2.779488e+00    1.225365e+01
  2.787440e+00    1.285396e+01
  2.795393e+00    1.433802e+01
  2.803346e+00    1.773031e+01
  2.811299e+00    2.497224e+01
  2.819251e+00    3.774344e+01
  2.827204e+00    5.554167e+01
  2.835157e+00    7.743687e+01
  2.843110e+00    1.006710e+02
  2.851062e+00    1.219941e+02
  2.859015e+00    1.397819e+02
  2.866968e+00    1.487142e+02
  2.874921e+00    1.475538e+02
  2.882873e+00    1.353715e+02
  2.890826e+00    1.156660e+02
  2.898779e+00    9.271978e+01
  2.906732e+00    7.015440e+01
  2.914684e+00    4.991674e+01
  2.922637e+00    3.408720e+01
  2.930590e+00    2.320343e+01
  2.938543e+00    1.732466e+01
  2.946495e+00    1.474465e+01
  2.954448e+00    1.379075e+01
  2.962401e+00    1.352032e+01
  2.970354e+00    1.329142e+01
  2.978306e+00    1.316871e+01
  2.986259e+00    1.309721e+01
  2.994212e+00    1.320602e+01
  3.002165e+00    1.333576e+01
  3.010117e+00    1.330139e+01
  3.018070e+00    1.330681e+01
  3.026023e+00    1.343629e+01
  3.033976e+00    1.354771e+01
  3.041928e+00    1.357764e+01
  3.049881e+00    1.363141e+01
  3.057834e+00    1.383026e+01
  3.065787e+00    1.396700e+01
  3.073739e+00    1.413090e+01
  3.081692e+00    1.437344e+01
  3.089645e+00    1.466608e+01
  3.097598e+00    1.500033e+01
  3.105551e+00    1.519311e+01
  3.113503e+00    1.544319e+01
  3.121456e+00    1.560475e+01
  3.129409e+00    1.598194e+01
  3.137362e+00    1.629665e+01
  3.145314e+00    1.655244e+01
  3.153267e+00    1.686635e+01
  3.161220e+00    1.733235e+01
  3.169173e+00    1.804868e+01
  3.177125e+00    1.886110e+01
  3.185078e+00    1.985510e+01
  3.193031e+00    2.100337e+01
  3.200984e+00    2.291666e+01
  3.208936e+00    2.635997e+01
  3.216889e+00    3.357698e+01
  3.224842e+00    4.948137e+01
  3.232795e+00    8.261790e+01
  3.240747e+00    1.428698e+02
  3.248700e+00    2.341359e+02
  3.256653e+00    3.525816e+02
  3.264606e+00    4.899452e+02
  3.272558e+00    6.322053e+02
  3.280511e+00    7.595078e+02
  3.288464e+00    8.618618e+02
  3.296417e+00    9.073297e+02
  3.304369e+00    8.889633e+02
  3.312322e+00    8.160640e+02
  3.320275e+00    7.016216e+02
  3.328228e+00    5.661903e+02
  3.336180e+00    4.259419e+02
  3.344133e+00    2.984510e+02
  3.352086e+00    1.956368e+02
  3.360039e+00    1.173934e+02
  3.367991e+00    6.973716e+01
  3.375944e+00    4.330265e+01
  3.383897e+00    3.078916e+01
  3.391850e+00    2.512663e+01
  3.399802e+00    2.244341e+01
  3.407755e+00    2.100425e+01
  3.415708e+00    1.976247e+01
  3.423661e+00    1.883182e+01
  3.431613e+00    1.810580e+01
  3.439566e+00    1.763550e+01
  3.447519e+00    1.714756e+01
  3.455472e+00    1.683725e+01
  3.463424e+00    1.656440e+01
  3.471377e+00    1.619085e+01
  3.479330e+00    1.582601e+01
  3.487283e+00    1.541204e+01
  3.495235e+00    1.532958e+01
  3.503188e+00    1.523078e+01
  3.511141e+00    1.517105e+01
  3.519094e+00    1.498534e+01
  3.527046e+00    1.486396e+01
  3.534999e+00    1.484677e+01
  3.542952e+00    1.474121e+01
  3.550905e+00    1.455289e+01
  3.558857e+00    1.445584e+01
  3.566810e+00    1.444215e+01
  3.574763e+00    1.455457e+01
  3.582716e+00    1.454223e+01
  3.590669e+00    1.453411e+01
  3.598621e+00    1.442749e+01
  3.606574e+00    1.433073e+01
  3.614527e+00    1.434834e+01
  3.622480e+00    1.447212e+01
  3.630432e+00    1.456150e+01
  3.638385e+00    1.469901e+01
  3.646338e+00    1.482547e+01
  3.654291e+00    1.505301e+01
  3.662243e+00    1.516078e+01
  3.670196e+00    1.545254e+01
  3.678149e+00    1.572176e+01
  3.686102e+00    1.626984e+01
  3.694054e+00    1.691397e+01
  3.702007e+00    1.792567e+01
  3.709960e+00    1.947086e+01
  3.717913e+00    2.240477e+01
  3.725865e+00    2.769619e+01
  3.733818e+00    3.794315e+01
  3.741771e+00    5.570873e+01
  3.749724e+00    8.412331e+01
  3.757676e+00    1.216700e+02
  3.765629e+00    1.667102e+02
  3.773582e+00    2.162242e+02
  3.781535e+00    2.643146e+02
  3.789487e+00    3.083177e+02
  3.797440e+00    3.385287e+02
  3.805393e+00    3.540379e+02
  3.813346e+00    3.486721e+02
  3.821298e+00    3.256913e+02
  3.829251e+00    2.897183e+02
  3.837204e+00    2.436643e+02
  3.845157e+00    1.941992e+02
  3.853109e+00    1.465048e+02
  3.861062e+00    1.040894e+02
  3.869015e+00    7.088232e+01
  3.876968e+00    4.690096e+01
  3.884920e+00    3.188682e+01
  3.892873e+00    2.340357e+01
  3.900826e+00    1.915547e+01
  3.908779e+00    1.694147e+01
  3.916731e+00    1.574178e+01
  3.924684e+00    1.472913e+01
  3.932637e+00    1.403331e+01
  3.940590e+00    1.353670e+01
  3.948542e+00    1.325868e+01
  3.956495e+00    1.295446e+01
  3.964448e+00    1.267579e+01
  3.972401e+00    1.246438e+01
  3.980353e+00    1.233917e+01
  3.988306e+00    1.221830e+01
  3.996259e+00    1.201538e+01
  4.004212e+00    1.191605e+01
  4.012164e+00    1.172123e+01
  4.020117e+00    1.156828e+01
  4.028070e+00    1.142424e+01
  4.036023e+00    1.132380e+01
  4.043976e+00    1.131424e+01
  4.051928e+00    1.123400e+01
  4.059881e+00    1.109461e+01
  4.067834e+00    1.107604e+01
  4.075787e+00    1.115372e+01
  4.083739e+00    1.105078e+01
  4.091692e+00    1.081965e+01
  4.099645e+00    1.071593e+01
  4.107598e+00    1.067743e+01
  4.115550e+00    1.062402e+01
  4.123503e+00    1.062841e+01
  4.131456e+00    1.072230e+01
  4.139409e+00    1.075048e+01
  4.147361e+00    1.060061e+01
  4.155314e+00    1.040649e+01
  4.163267e+00    1.033321e+01
  4.171220e+00    1.035433e+01
  4.179172e+00    1.031030e+01
  4.187125e+00    1.023372e+01
  4.195078e+00    1.018974e+01
  4.203031e+00    1.018977e+01
  4.210983e+00    1.016629e+01
  4.218936e+00    1.013631e+01
  4.226889e+00    1.015627e+01
  4.234842e+00    1.022410e+01
  4.242794e+00    1.015946e+01
  4.250747e+00    1.018452e+01
  4.258700e+00    1.007621e+01
  4.266653e+00    1.002876e+01
  4.274605e+00    1.006090e+01
  4.282558e+00    1.010466e+01
  4.290511e+00    9.987215e+00
  4.298464e+00    9.951836e+00
  4.306416e+00    9.947760e+00
  4.314369e+00    9.982447e+00
  4.322322e+00    1.004389e+01
  4.330275e+00    1.009237e+01
  4.338227e+00    1.009459e+01
  4.346180e+00    9.925805e+00
  4.354133e+00    9.944284e+00
  4.362086e+00    1.003544e+01
  4.370038e+00    1.009201e+01
  4.377991e+00    1.000703e+01
  4.385944e+00    9.955420e+00
  4.393897e+00    1.000465e+01
  4.401849e+00    1.005369e+01
  4.409802e+00    1.006019e+01
  4.417755e+00    1.007850e+01
  4.425708e+00    1.002727e+01
  4.433660e+00    9.947914e+00
  4.441613e+00    9.964170e+00
  4.449566e+00    1.000400e+01
  4.457519e+00    1.000737e+01
  4.465471e+00    9.970292e+00
  4.473424e+00    9.954059e+00
  4.481377e+00    1.005346e+01
  4.489330e+00    1.006580e+01
  4.497282e+00    1.016757e+01
  4.505235e+00    1.021012e+01
  4.513188e+00    1.018066e+01
  4.521141e+00    1.019744e+01
  4.529094e+00    1.019636e+01
  4.537046e+00    1.021412e+01
  4.544999e+00    1.021017e+01
  4.552952e+00    1.019440e+01
  4.560905e+00    1.021278e+01
  4.568857e+00    1.027076e+01
  4.576810e+00    1.036491e+01
  4.584763e+00    1.049147e+01
  4.592716e+00    1.071699e+01
  4.600668e+00    1.116925e+01
  4.608621e+00    1.221323e+01
  4.616574e+00    1.407703e+01
  4.624527e+00    1.692296e+01
  4.632479e+00    2.069347e+01
  4.640432e+00    2.492786e+01
  4.648385e+00    2.943766e+01
  4.656338e+00    3.396907e+01
  4.664290e+00    3.778673e+01
  4.672243e+00    4.083865e+01
  4.680196e+00    4.254493e+01
  4.688149e+00    4.301793e+01
  4.696101e+00    4.205504e+01
  4.704054e+00    3.981210e+01
  4.712007e+00    3.663725e+01
  4.719960e+00    3.257629e+01
  4.727912e+00    2.824200e+01
  4.735865e+00    2.403725e+01
  4.743818e+00    2.014413e+01
  4.751771e+00    1.674777e+01
  4.759723e+00    1.397812e+01
  4.767676e+00    1.227232e+01
  4.775629e+00    1.127671e+01
  4.783582e+00    1.070771e+01
  4.791534e+00    1.043985e+01
  4.799487e+00    1.038373e+01
  4.807440e+00    1.032856e+01
  4.815393e+00    1.032024e+01
  4.823345e+00    1.025968e+01
  4.831298e+00    1.028700e+01
  4.839251e+00    1.029545e+01
  4.847204e+00    1.032900e+01
  4.855156e+00    1.032859e+01
  4.863109e+00    1.030673e+01
  4.871062e+00    1.029359e+01
  4.879015e+00    1.023438e+01
  4.886967e+00    1.015663e+01
  4.894920e+00    1.006950e+01
  4.902873e+00    1.010231e+01
  4.910826e+00    1.023194e+01
  4.918778e+00    1.024083e+01
  4.926731e+00    1.014184e+01
  4.934684e+00    1.008564e+01
  4.942637e+00    1.013187e+01
  4.950589e+00    1.021302e+01
  4.958542e+00    1.028602e+01
  4.966495e+00    1.025020e+01
  4.974448e+00    1.026883e+01
  4.982400e+00    1.033377e+01
  4.990353e+00    1.035181e+01
  4.998306e+00    1.038524e+01
  5.006259e+00    1.034578e+01
  5.014212e+00    1.036559e+01
  5.022164e+00    1.039491e+01
  5.030117e+00    1.056624e+01
  5.038070e+00    1.062665e+01
  5.046023e+00    1.071076e+01
  5.053975e+00    1.075116e+01
  5.061928e+00    1.079809e+01
  5.069881e+00    1.087086e+01
  5.077834e+00    1.092206e+01
  5.085786e+00    1.099172e+01
  5.093739e+00    1.098121e+01
  5.101692e+00    1.098290e+01
  5.109645e+00    1.099280e+01
  5.117597e+00    1.107748e+01
  5.125550e+00    1.126818e+01
  5.133503e+00    1.136477e+01
  5.141456e+00    1.137331e+01
  5.149408e+00    1.136707e+01
  5.157361e+00    1.153014e+01
  5.165314e+00    1.173418e+01
  5.173267e+00    1.187068e+01
  5.181219e+00    1.193905e+01
  5.189172e+00    1.197654e+01
  5.197125e+00    1.205748e+01
  5.205078e+00    1.215781e+01
  5.213030e+00    1.224220e+01
  5.220983e+00    1.240210e+01
  5.228936e+00    1.270711e+01
  5.236889e+00    1.293503e+01
  5.244841e+00    1.328750e+01
  5.252794e+00    1.369867e+01
  5.260747e+00    1.415384e+01
  5.268700e+00    1.477295e+01
  5.276652e+00    1.584344e+01
  5.284605e+00    1.756557e+01
  5.292558e+00    2.083291e+01
  5.300511e+00    2.635254e+01
  5.308463e+00    3.564251e+01
  5.316416e+00    4.893266e+01
  5.324369e+00    6.653506e+01
  5.332322e+00    8.755246e+01
  5.340274e+00    1.094512e+02
  5.348227e+00    1.311988e+02
  5.356180e+00    1.510145e+02
  5.364133e+00    1.670763e+02
  5.372085e+00    1.776245e+02
  5.380038e+00    1.826142e+02
  5.387991e+00    1.833360e+02
  5.395944e+00    1.801072e+02
  5.403896e+00    1.719500e+02
  5.411849e+00    1.594269e+02
  5.419802e+00    1.441626e+02
  5.427755e+00    1.268920e+02
  5.435707e+00    1.091507e+02
  5.443660e+00    9.221845e+01
  5.451613e+00    7.753847e+01
  5.459566e+00    6.638881e+01
  5.467518e+00    5.862862e+01
  5.475471e+00    5.367696e+01
  5.483424e+00    5.110700e+01
  5.491377e+00    4.947319e+01
  5.499330e+00    4.814235e+01
  5.507282e+00    4.663191e+01
  5.515235e+00    4.439384e+01
  5.523188e+00    4.148863e+01
  5.531141e+00    3.797720e+01
  5.539093e+00    3.373814e+01
  5.547046e+00    2.939325e+01
  5.554999e+00    2.514017e+01
  5.562952e+00    2.133851e+01
  5.570904e+00    1.815624e+01
  5.578857e+00    1.584189e+01
  5.586810e+00    1.432895e+01
  5.594763e+00    1.346228e+01
  5.602715e+00    1.303765e+01
  5.610668e+00    1.282586e+01
  5.618621e+00    1.266384e+01
  5.626574e+00    1.253089e+01
  5.634526e+00    1.246414e+01
  5.642479e+00    1.242886e+01
  5.650432e+00    1.259598e+01
  5.658385e+00    1.290183e+01
  5.666337e+00    1.345006e+01
  5.674290e+00    1.417551e+01
  5.682243e+00    1.509239e+01
  5.690196e+00    1.619073e+01
  5.698148e+00    1.737871e+01
  5.706101e+00    1.844877e+01
  5.714054e+00    1.904068e+01
  5.722007e+00    1.952921e+01
  5.729959e+00    1.977728e+01
  5.737912e+00    1.986290e+01
  5.745865e+00    1.979883e+01
  5.753818e+00    1.947764e+01
  5.761770e+00    1.914705e+01
  5.769723e+00    1.838279e+01
  5.777676e+00    1.741891e+01
  5.785629e+00    1.636317e+01
  5.793581e+00    1.533050e+01
  5.801534e+00    1.427747e+01
  5.809487e+00    1.327730e+01
  5.817440e+00    1.246376e+01
  5.825392e+00    1.189405e+01
  5.833345e+00    1.153482e+01
  5.841298e+00    1.129146e+01
  5.849251e+00    1.117657e+01
  5.857203e+00    1.109716e+01
  5.865156e+00    1.109831e+01
  5.873109e+00    1.107068e+01
  5.881062e+00    1.108801e+01
  5.889014e+00    1.105526e+01
  5.896967e+00    1.104858e+01
  5.904920e+00    1.104646e+01
  5.912873e+00    1.104023e+01
  5.920825e+00    1.111592e+01
  5.928778e+00    1.123726e+01
  5.936731e+00    1.135291e+01
  5.944684e+00    1.124505e+01
  5.952637e+00    1.112013e+01
  5.960589e+00    1.106041e+01
  5.968542e+00    1.112015e+01
  5.976495e+00    1.117529e+01
  5.984448e+00    1.121260e+01
  5.992400e+00    1.123843e+01
  6.000353e+00    1.127867e+01
  6.008306e+00    1.121960e+01
  6.016259e+00    1.127167e+01
  6.024211e+00    1.126533e+01
  6.032164e+00    1.125640e+01
  6.040117e+00    1.130254e+01
  6.048070e+00    1.144649e+01
  6.056022e+00    1.152229e+01
  6.063975e+00    1.161432e+01
  6.071928e+00    1.155902e+01
  6.079881e+00    1.158471e+01
  6.087833e+00    1.166240e+01
  6.095786e+00    1.182851e+01
  6.103739e+00    1.193150e+01
  6.111692e+00    1.196668e+01
  6.119644e+00    1.202059e+01
  6.127597e+00    1.210448e+01
  6.135550e+00    1.231060e+01
  6.143503e+00    1.245431e+01
  6.151455e+00    1.258015e+01
  6.159408e+00    1.274051e+01
  6.167361e+00    1.299040e+01
  6.175314e+00    1.329743e+01
  6.183266e+00    1.388756e+01
  6.191219e+00    1.481409e+01
  6.199172e+00    1.608083e+01
  6.207125e+00    1.793821e+01
  6.215077e+00    2.103929e+01
  6.223030e+00    2.623245e+01
  6.230983e+00    3.444105e+01
  6.238936e+00    4.586645e+01
  6.246888e+00    6.049826e+01
  6.254841e+00    7.758280e+01
  6.262794e+00    9.621172e+01
  6.270747e+00    1.144169e+02
  6.278699e+00    1.309041e+02
  6.286652e+00    1.445363e+02
  6.294605e+00    1.544889e+02
  6.302558e+00    1.604005e+02
  6.310510e+00    1.628489e+02
  6.318463e+00    1.624407e+02
  6.326416e+00    1.602887e+02
  6.334369e+00    1.550397e+02
  6.342321e+00    1.467258e+02
  6.350274e+00    1.353553e+02
  6.358227e+00    1.213193e+02
  6.366180e+00    1.047659e+02
  6.374132e+00    8.693328e+01
  6.382085e+00    6.930813e+01
  6.390038e+00    5.342867e+01
  6.397991e+00    4.044592e+01
  6.405943e+00    3.041333e+01
  6.413896e+00    2.361234e+01
  6.421849e+00    1.935366e+01
  6.429802e+00    1.679737e+01
  6.437755e+00    1.529689e+01
  6.445707e+00    1.452160e+01
  6.453660e+00    1.414771e+01
  6.461613e+00    1.383510e+01
  6.469566e+00    1.354986e+01
  6.477518e+00    1.353760e+01
  6.485471e+00    1.388085e+01
  6.493424e+00    1.460714e+01
  6.501377e+00    1.567405e+01
  6.509329e+00    1.748132e+01
  6.517282e+00    2.046318e+01
  6.525235e+00    2.445691e+01
  6.533188e+00    2.936738e+01
  6.541140e+00    3.456913e+01
  6.549093e+00    3.973827e+01
  6.557046e+00    4.471845e+01
  6.564999e+00    4.864203e+01
  6.572951e+00    5.139294e+01
  6.580904e+00    5.335170e+01
  6.588857e+00    5.456913e+01
  6.596810e+00    5.506998e+01
  6.604762e+00    5.476263e+01
  6.612715e+00    5.384224e+01
  6.620668e+00    5.224658e+01
  6.628621e+00    4.976080e+01
  6.636573e+00    4.620953e+01
  6.644526e+00    4.183699e+01
  6.652479e+00    3.699081e+01
  6.660432e+00    3.207994e+01
  6.668384e+00    2.723020e+01
  6.676337e+00    2.268545e+01
  6.684290e+00    1.892929e+01
  6.692243e+00    1.603434e+01
  6.700195e+00    1.419648e+01
  6.708148e+00    1.302370e+01
  6.716101e+00    1.224786e+01
  6.724054e+00    1.175839e+01
  6.732006e+00    1.136422e+01
  6.739959e+00    1.114424e+01
  6.747912e+00    1.091405e+01
  6.755865e+00    1.085771e+01
  6.763817e+00    1.084881e+01
  6.771770e+00    1.076985e+01
  6.779723e+00    1.058654e+01
  6.787676e+00    1.051190e+01
  6.795628e+00    1.046585e+01
  6.803581e+00    1.048412e+01
  6.811534e+00    1.038719e+01
  6.819487e+00    1.034513e+01
  6.827439e+00    1.035442e+01
  6.835392e+00    1.029466e+01
  6.843345e+00    1.027077e+01
  6.851298e+00    1.019622e+01
  6.859250e+00    1.019729e+01
  6.867203e+00    1.022274e+01
  6.875156e+00    1.015460e+01
  6.883109e+00    1.007323e+01
  6.891061e+00    1.003982e+01
  6.899014e+00    1.006290e+01
  6.906967e+00    1.008064e+01
  6.914920e+00    1.004367e+01
  6.922873e+00    1.001501e+01
  6.930825e+00    9.960282e+00
  6.938778e+00    9.928540e+00
  6.946731e+00    9.978069e+00
  6.954684e+00    1.003711e+01
  6.962636e+00    9.991442e+00
  6.970589e+00    9.989497e+00
  6.978542e+00    9.976665e+00
  6.986495e+00    9.941492e+00
  6.994447e+00    9.908630e+00
  7.002400e+00    9.912115e+00
  7.010353e+00    9.973957e+00
  7.018306e+00    1.001122e+01
  7.026258e+00    9.987093e+00
  7.034211e+00    9.977143e+00
  7.042164e+00    9.931234e+00
  7.050117e+00    9.908679e+00
  7.058069e+00    9.952613e+00
  7.066022e+00    1.002292e+01
  7.073975e+00    1.009432e+01
  7.081928e+00    1.011011e+01
  7.089880e+00    1.014678e+01
  7.097833e+00    1.008405e+01
  7.105786e+00    1.006976e+01
  7.113739e+00    1.007115e+01
  7.121691e+00    1.027439e+01
  7.129644e+00    1.063405e+01
  7.137597e+00    1.110040e+01
  7.145550e+00    1.178499e+01
  7.153502e+00    1.260618e+01
  7.161455e+00    1.343215e+01
  7.169408e+00    1.421490e+01
  7.177361e+00    1.503632e+01
  7.185313e+00    1.580610e+01
  7.193266e+00    1.641918e+01
  7.201219e+00    1.691235e+01
  7.209172e+00    1.723053e+01
  7.217124e+00    1.723554e+01
  7.225077e+00    1.714647e+01
  7.233030e+00    1.708457e+01
  7.240983e+00    1.697538e+01
  7.248935e+00    1.672905e+01
  7.256888e+00    1.635395e+01
  7.264841e+00    1.594776e+01
  7.272794e+00    1.532221e+01
  7.280746e+00    1.459580e+01
  7.288699e+00    1.382802e+01
  7.296652e+00    1.309740e+01
  7.304605e+00    1.243481e+01
  7.312557e+00    1.194921e+01
  7.320510e+00    1.173137e+01
  7.328463e+00    1.180454e+01
  7.336416e+00    1.217797e+01
  7.344368e+00    1.286192e+01
  7.352321e+00    1.362285e+01
  7.360274e+00    1.432194e+01
  7.368227e+00    1.480998e+01
  7.376180e+00    1.526587e+01
  7.384132e+00    1.574378e+01
  7.392085e+00    1.607255e+01
  7.400038e+00    1.615440e+01
  7.407991e+00    1.609244e+01
  7.415943e+00    1.598666e+01
  7.423896e+00    1.592464e+01
  7.431849e+00    1.581055e+01
  7.439802e+00    1.573816e+01
  7.447754e+00    1.547683e+01
  7.455707e+00    1.504337e+01
  7.463660e+00    1.449561e+01
  7.471613e+00    1.394647e+01
  7.479565e+00    1.336283e+01
  7.487518e+00    1.273122e+01
  7.495471e+00    1.221430e+01
  7.503424e+00    1.187804e+01
  7.511376e+00    1.190600e+01
  7.519329e+00    1.224965e+01
  7.527282e+00    1.295278e+01
  7.535235e+00    1.397792e+01
  7.543187e+00    1.533446e+01
  7.551140e+00    1.691551e+01
  7.559093e+00    1.842339e+01
  7.567046e+00    1.979754e+01
  7.574998e+00    2.091211e+01
  7.582951e+00    2.195672e+01
  7.590904e+00    2.276074e+01
  7.598857e+00    2.333419e+01
  7.606809e+00    2.356415e+01
  7.614762e+00    2.362609e+01
  7.622715e+00    2.355300e+01
  7.630668e+00    2.344953e+01
  7.638620e+00    2.312426e+01
  7.646573e+00    2.276571e+01
  7.654526e+00    2.197819e+01
  7.662479e+00    2.103793e+01
  7.670431e+00    1.988141e+01
  7.678384e+00    1.850849e+01
  7.686337e+00    1.701324e+01
  7.694290e+00    1.554998e+01
  7.702242e+00    1.416668e+01
  7.710195e+00    1.292924e+01
  7.718148e+00    1.194607e+01
  7.726101e+00    1.126069e+01
  7.734053e+00    1.072721e+01
  7.742006e+00    1.032334e+01
  7.749959e+00    1.010324e+01
  7.757912e+00    9.974680e+00
  7.765864e+00    9.848237e+00
  7.773817e+00    9.712339e+00
  7.781770e+00    9.669246e+00
  7.789723e+00    9.730304e+00
  7.797675e+00    9.711622e+00
  7.805628e+00    9.675871e+00
  7.813581e+00    9.635829e+00
  7.821534e+00    9.623997e+00
  7.829486e+00    9.690578e+00
  7.837439e+00    9.662062e+00
  7.845392e+00    9.612329e+00
  7.853345e+00    9.560387e+00
  7.861298e+00    9.595192e+00
  7.869250e+00    9.684838e+00
  7.877203e+00    9.703514e+00
  7.885156e+00    9.716399e+00
  7.893109e+00    9.711337e+00
  7.901061e+00    9.695305e+00
  7.909014e+00    9.701686e+00
  7.916967e+00    9.768479e+00
  7.924920e+00    9.865191e+00
  7.932872e+00    9.827184e+00
  7.940825e+00    9.736509e+00
  7.948778e+00    9.727183e+00
  7.956731e+00    9.779681e+00
  7.964683e+00    9.835176e+00
  7.972636e+00    9.853680e+00
  7.980589e+00    9.856233e+00
  7.988542e+00    9.883781e+00
  7.996494e+00    9.964590e+00
  8.004447e+00    1.004979e+01
  8.012400e+00    1.020037e+01
  8.020353e+00    1.033163e+01
  8.028305e+00    1.056724e+01
  8.036258e+00    1.087568e+01
  8.044211e+00    1.128315e+01
  8.052164e+00    1.171822e+01
  8.060116e+00    1.226544e+01
  8.068069e+00    1.274337e+01
  8.076022e+00    1.306454e+01
  8.083975e+00    1.329759e+01
  8.091927e+00    1.350954e+01
  8.099880e+00    1.373239e+01
  8.107833e+00    1.384901e+01
  8.115786e+00    1.390128e+01
  8.123738e+00    1.395270e+01
  8.131691e+00    1.399674e+01
  8.139644e+00    1.402173e+01
  8.147597e+00    1.408372e+01
  8.155549e+00    1.417946e+01
  8.163502e+00    1.430936e+01
  8.171455e+00    1.445805e+01
  8.179408e+00    1.475046e+01
  8.187360e+00    1.533408e+01
  8.195313e+00    1.632773e+01
  8.203266e+00    1.794445e+01
  8.211219e+00    2.030169e+01
  8.219171e+00    2.330269e+01
  8.227124e+00    2.679340e+01
  8.235077e+00    3.067995e+01
  8.243030e+00    3.455435e+01
  8.250982e+00    3.833573e+01
  8.258935e+00    4.155532e+01
  8.266888e+00    4.391423e+01
  8.274841e+00    4.532447e+01
  8.282793e+00    4.617786e+01
  8.290746e+00    4.648480e+01
  8.298699e+00    4.661330e+01
  8.306652e+00    4.641608e+01
  8.314604e+00    4.618715e+01
  8.322557e+00    4.554312e+01
  8.330510e+00    4.474359e+01
  8.338463e+00    4.365834e+01
  8.346416e+00    4.217004e+01
  8.354368e+00    3.982873e+01
  8.362321e+00    3.715769e+01
  8.370274e+00    3.385834e+01
  8.378227e+00    3.026206e+01
  8.386179e+00    2.660062e+01
  8.394132e+00    2.361436e+01
  8.402085e+00    2.131579e+01
  8.410038e+00    1.996523e+01
  8.417990e+00    1.997770e+01
  8.425943e+00    2.113424e+01
  8.433896e+00    2.332735e+01
  8.441849e+00    2.605181e+01
  8.449801e+00    2.917683e+01
  8.457754e+00    3.227661e+01
  8.465707e+00    3.517015e+01
  8.473660e+00    3.764879e+01
  8.481612e+00    3.955773e+01
  8.489565e+00    4.078094e+01
  8.497518e+00    4.145417e+01
  8.505471e+00    4.188311e+01
  8.513423e+00    4.198559e+01
  8.521376e+00    4.212418e+01
  8.529329e+00    4.212259e+01
  8.537282e+00    4.216613e+01
  8.545234e+00    4.172306e+01
  8.553187e+00    4.099163e+01
  8.561140e+00    3.992045e+01
  8.569093e+00    3.849620e+01
  8.577045e+00    3.640689e+01
  8.584998e+00    3.368510e+01
  8.592951e+00    3.052883e+01
  8.600904e+00    2.732231e+01
  8.608856e+00    2.418971e+01
  8.616809e+00    2.138495e+01
  8.624762e+00    1.900553e+01
  8.632715e+00    1.723114e+01
  8.640667e+00    1.591595e+01
  8.648620e+00    1.509967e+01
  8.656573e+00    1.451334e+01
  8.664526e+00    1.402819e+01
  8.672478e+00    1.349311e+01
  8.680431e+00    1.308487e+01
  8.688384e+00    1.266513e+01
  8.696337e+00    1.220287e+01
  8.704289e+00    1.172255e+01
  8.712242e+00    1.133887e+01
  8.720195e+00    1.110647e+01
  8.728148e+00    1.083042e+01
  8.736100e+00    1.066332e+01
  8.744053e+00    1.057898e+01
  8.752006e+00    1.048504e+01
  8.759959e+00    1.039132e+01
  8.767911e+00    1.035857e+01
  8.775864e+00    1.033393e+01
  8.783817e+00    1.030457e+01
  8.791770e+00    1.028887e+01
  8.799722e+00    1.028341e+01
  8.807675e+00    1.018653e+01
  8.815628e+00    1.009170e+01
  8.823581e+00    9.960910e+00
  8.831534e+00    1.000815e+01
  8.839486e+00    1.006759e+01
  8.847439e+00    1.012687e+01
  8.855392e+00    1.010182e+01
  8.863345e+00    1.004212e+01
  8.871297e+00    1.003266e+01
  8.879250e+00    9.986130e+00
  8.887203e+00    9.972517e+00
  8.895156e+00    9.880736e+00
  8.903108e+00    9.912141e+00
  8.911061e+00    9.871423e+00
  8.919014e+00    9.820189e+00
  8.926967e+00    9.834281e+00
  8.934919e+00    9.852492e+00
  8.942872e+00    9.799607e+00
  8.950825e+00    9.691560e+00
  8.958778e+00    9.699003e+00
  8.966730e+00    9.695458e+00
  8.974683e+00    9.682372e+00
  8.982636e+00    9.687632e+00
  8.990589e+00    9.745036e+00
  8.998541e+00    9.764880e+00
  9.006494e+00    9.713905e+00
  9.014447e+00    9.685477e+00
  9.022400e+00    9.684176e+00
  9.030352e+00    9.738774e+00
  9.038305e+00    9.748041e+00
  9.046258e+00    9.724629e+00
  9.054211e+00    9.691047e+00
  9.062163e+00    9.741957e+00
  9.070116e+00    9.742166e+00
  9.078069e+00    9.744607e+00
  9.086022e+00    9.813187e+00
  9.093974e+00    9.893251e+00
  9.101927e+00    9.910853e+00
  9.109880e+00    9.835308e+00
  9.117833e+00    9.825407e+00
  9.125785e+00    9.870695e+00
  9.133738e+00    9.896470e+00
  9.141691e+00    9.893076e+00
  9.149644e+00    9.952945e+00
  9.157596e+00    1.005700e+01
  9.165549e+00    1.010304e+01
  9.173502e+00    1.018199e+01
  9.181455e+00    1.022915e+01
  9.189407e+00    1.040994e+01
  9.197360e+00    1.067571e+01
  9.205313e+00    1.110216e+01
  9.213266e+00    1.165304e+01
  9.221218e+00    1.251276e+01
  9.229171e+00    1.367682e+01
  9.237124e+00    1.522412e+01
  9.245077e+00    1.712486e+01
  9.253029e+00    1.916629e+01
  9.260982e+00    2.098162e+01
  9.268935e+00    2.282746e+01
  9.276888e+00    2.457822e+01
  9.284841e+00    2.599685e+01
  9.292793e+00    2.706486e+01
  9.300746e+00    2.784420e+01
  9.308699e+00    2.830910e+01
  9.316652e+00    2.854356e+01
  9.324604e+00    2.856080e+01
  9.332557e+00    2.850153e+01
  9.340510e+00    2.842632e+01
  9.348463e+00    2.825148e+01
  9.356415e+00    2.801056e+01
  9.364368e+00    2.764251e+01
  9.372321e+00    2.712533e+01
  9.380274e+00    2.641537e+01
  9.388226e+00    2.540424e+01
  9.396179e+00    2.414748e+01
  9.404132e+00    2.252553e+01
  9.412085e+00    2.063933e+01
  9.420037e+00    1.873324e+01
  9.427990e+00    1.693407e+01
  9.435943e+00    1.530459e+01
  9.443896e+00    1.383910e+01
  9.451848e+00    1.263702e+01
  9.459801e+00    1.172585e+01
  9.467754e+00    1.103460e+01
  9.475707e+00    1.050474e+01
  9.483659e+00    1.023299e+01
  9.491612e+00    1.009370e+01
  9.499565e+00    1.000670e+01
  9.507518e+00    9.855835e+00
  9.515470e+00    9.752701e+00
  9.523423e+00    9.768317e+00
  9.531376e+00    9.711503e+00
  9.539329e+00    9.624467e+00
  9.547281e+00    9.567734e+00
  9.555234e+00    9.598684e+00
  9.563187e+00    9.611924e+00
  9.571140e+00    9.636212e+00
  9.579092e+00    9.654095e+00
  9.587045e+00    9.650949e+00
  9.594998e+00    9.631642e+00
  9.602951e+00    9.636390e+00
  9.610903e+00    9.661291e+00
  9.618856e+00    9.684641e+00
  9.626809e+00    9.668113e+00
  9.634762e+00    9.693112e+00
  9.642714e+00    9.641623e+00
  9.650667e+00    9.637555e+00
  9.658620e+00    9.698491e+00
  9.666573e+00    9.706768e+00
  9.674525e+00    9.759857e+00
  9.682478e+00    9.832644e+00
  9.690431e+00    9.887743e+00
  9.698384e+00    1.001417e+01
  9.706336e+00    1.017466e+01
  9.714289e+00    1.041186e+01
  9.722242e+00    1.073174e+01
  9.730195e+00    1.102592e+01
  9.738147e+00    1.132143e+01
  9.746100e+00    1.163857e+01
  9.754053e+00    1.202579e+01
  9.762006e+00    1.239730e+01
  9.769959e+00    1.288233e+01
  9.777911e+00    1.350881e+01
  9.785864e+00    1.441819e+01
  9.793817e+00    1.556723e+01
  9.801770e+00    1.701232e+01
  9.809722e+00    1.868702e+01
  9.817675e+00    2.046862e+01
  9.825628e+00    2.216606e+01
  9.833581e+00    2.388549e+01
  9.841533e+00    2.553419e+01
  9.849486e+00    2.689130e+01
  9.857439e+00    2.780836e+01
  9.865392e+00    2.829744e+01
  9.873344e+00    2.878256e+01
  9.881297e+00    2.909583e+01
  9.889250e+00    2.904608e+01
  9.897203e+00    2.873230e+01
  9.905155e+00    2.849082e+01
  9.913108e+00    2.836649e+01
  9.921061e+00    2.812645e+01
  9.929014e+00    2.767553e+01
  9.936966e+00    2.713806e+01
  9.944919e+00    2.657977e+01
  9.952872e+00    2.583251e+01
  9.960825e+00    2.492161e+01
  9.968777e+00    2.369345e+01
  9.976730e+00    2.229736e+01
  9.984683e+00    2.065201e+01
  9.992636e+00    1.903433e+01
  1.000059e+01    1.733048e+01
  1.000854e+01    1.574257e+01
  1.001649e+01    1.421276e+01
  1.002445e+01    1.295137e+01
  1.003240e+01    1.201790e+01
  1.004035e+01    1.131040e+01
  1.004830e+01    1.076916e+01
  1.005626e+01    1.036504e+01
  1.006421e+01    1.006354e+01
  1.007216e+01    9.859168e+00
  1.008012e+01    9.711880e+00
  1.008807e+01    9.577051e+00
  1.009602e+01    9.468732e+00
  1.010397e+01    9.427054e+00
  1.011193e+01    9.359958e+00
  1.011988e+01    9.314750e+00
  1.012783e+01    9.266079e+00
  1.013579e+01    9.313915e+00
  1.014374e+01    9.306813e+00
  1.015169e+01    9.218870e+00
  1.015964e+01    9.139297e+00
  1.016760e+01    9.151019e+00
  1.017555e+01    9.152614e+00
  1.018350e+01    9.065969e+00
  1.019145e+01    9.001777e+00
  1.019941e+01    9.028884e+00
  1.020736e+01    9.001069e+00
  1.021531e+01    8.982207e+00
  1.022327e+01    8.937459e+00
  1.023122e+01    8.888123e+00
  1.023917e+01    8.898991e+00
  1.024712e+01    8.920943e+00
  1.025508e+01    8.957272e+00
  1.026303e+01    8.920599e+00
  1.027098e+01    8.883432e+00
  1.027893e+01    8.900244e+00
  1.028689e+01    8.880862e+00
  1.029484e+01    8.873424e+00
  1.030279e+01    8.885874e+00
  1.031075e+01    8.913751e+00
  1.031870e+01    8.890797e+00
  1.032665e+01    8.862884e+00
  1.033460e+01    8.866511e+00
  1.034256e+01    8.826338e+00
  1.035051e+01    8.840048e+00
  1.035846e+01    8.933824e+00
  1.036642e+01    8.949082e+00
  1.037437e+01    8.948874e+00
  1.038232e+01    8.949012e+00
  1.039027e+01    8.991406e+00
  1.039823e+01    9.060655e+00
  1.040618e+01    9.122986e+00
  1.041413e+01    9.181684e+00
  1.042208e+01    9.179079e+00
  1.043004e+01    9.211871e+00
  1.043799e+01    9.241961e+00
  1.044594e+01    9.289306e+00
  1.045390e+01    9.335400e+00
  1.046185e+01    9.376677e+00
  1.046980e+01    9.424337e+00
  1.047775e+01    9.358436e+00
  1.048571e+01    9.344804e+00
  1.049366e+01    9.316564e+00
  1.050161e+01    9.294679e+00
  1.050956e+01    9.296062e+00
  1.051752e+01    9.327061e+00
  1.052547e+01    9.332277e+00
  1.053342e+01    9.382168e+00
  1.054138e+01    9.369256e+00
  1.054933e+01    9.334789e+00
  1.055728e+01    9.276603e+00
  1.056523e+01    9.298617e+00
  1.057319e+01    9.256789e+00
  1.058114e+01    9.175286e+00
  1.058909e+01    9.131295e+00
  1.059704e+01    9.111067e+00
  1.060500e+01    9.031125e+00
  1.061295e+01    8.969192e+00
  1.062090e+01    8.994694e+00
  1.062886e+01    9.100253e+00
  1.063681e+01    9.232196e+00
  1.064476e+01    9.285110e+00
  1.065271e+01    9.371506e+00
  1.066067e+01    9.586325e+00
  1.066862e+01    9.915401e+00
  1.067657e+01    1.026413e+01
  1.068453e+01    1.062294e+01
  1.069248e+01    1.106714e+01
  1.070043e+01    1.154097e+01
  1.070838e+01    1.190469e+01
  1.071634e+01    1.218992e+01
  1.072429e+01    1.244774e+01
  1.073224e+01    1.271581e+01
  1.074019e+01    1.284525e+01
  1.074815e+01    1.294506e+01
  1.075610e+01    1.300583e+01
  1.076405e+01    1.309792e+01
  1.077201e+01    1.314711e+01
  1.077996e+01    1.316070e+01
  1.078791e+01    1.311429e+01
  1.079586e+01    1.319379e+01
  1.080382e+01    1.330257e+01
  1.081177e+01    1.338877e+01
  1.081972e+01    1.336764e+01
  1.082767e+01    1.326406e+01
  1.083563e+01    1.319893e+01
  1.084358e+01    1.309111e+01
  1.085153e+01    1.283040e+01
  1.085949e+01    1.248651e+01
  1.086744e+01    1.213108e+01
  1.087539e+01    1.175510e+01
  1.088334e+01    1.134160e+01
  1.089130e+01    1.104644e+01
  1.089925e+01    1.078612e+01
  1.090720e+01    1.059160e+01
  1.091516e+01    1.033536e+01
  1.092311e+01    1.019180e+01
  1.093106e+01    1.012677e+01
  1.093901e+01    1.007023e+01
  1.094697e+01    9.978353e+00
  1.095492e+01    9.920831e+00
  1.096287e+01    9.881642e+00
  1.097082e+01    9.854339e+00
  1.097878e+01    9.879773e+00
  1.098673e+01    9.870683e+00
  1.099468e+01    9.774171e+00
  1.100264e+01    9.703262e+00
  1.101059e+01    9.705063e+00
  1.101854e+01    9.721209e+00
  1.102649e+01    9.709608e+00
  1.103445e+01    9.756558e+00
  1.104240e+01    9.821949e+00
  1.105035e+01    9.834597e+00
  1.105830e+01    9.830200e+00
  1.106626e+01    9.813903e+00
  1.107421e+01    9.811219e+00
  1.108216e+01    9.886620e+00
  1.109012e+01    9.927026e+00
  1.109807e+01    9.961692e+00
  1.110602e+01    1.000010e+01
  1.111397e+01    1.011859e+01
  1.112193e+01    1.025580e+01
  1.112988e+01    1.045020e+01
  1.113783e+01    1.079591e+01
  1.114578e+01    1.141227e+01
  1.115374e+01    1.218339e+01
  1.116169e+01    1.304455e+01
  1.116964e+01    1.402061e+01
  1.117760e+01    1.516644e+01
  1.118555e+01    1.647481e+01
  1.119350e+01    1.775356e+01
  1.120145e+01    1.886584e+01
  1.120941e+01    1.985282e+01
  1.121736e+01    2.066351e+01
  1.122531e+01    2.128873e+01
  1.123327e+01    2.162176e+01
  1.124122e+01    2.188892e+01
  1.124917e+01    2.214350e+01
  1.125712e+01    2.233659e+01
  1.126508e+01    2.246040e+01
  1.127303e+01    2.235639e+01
  1.128098e+01    2.241252e+01
  1.128893e+01    2.257894e+01
  1.129689e+01    2.273398e+01
  1.130484e+01    2.292616e+01
  1.131279e+01    2.318905e+01
  1.132075e+01    2.352624e+01
  1.132870e+01    2.380396e+01
  1.133665e+01    2.406237e+01
  1.134460e+01    2.426827e+01
  1.135256e+01    2.428541e+01
  1.136051e+01    2.413953e+01
  1.136846e+01    2.369514e+01
  1.137641e+01    2.300425e+01
  1.138437e+01    2.208306e+01
  1.139232e+01    2.128419e+01
  1.140027e+01    2.040952e+01
  1.140823e+01    1.959452e+01
  1.141618e+01    1.886939e+01
  1.142413e+01    1.836796e+01
  1.143208e+01    1.799725e+01
  1.144004e+01    1.769967e+01
  1.144799e+01    1.744060e+01
  1.145594e+01    1.724495e+01
  1.146390e+01    1.704242e+01
  1.147185e+01    1.691152e+01
  1.147980e+01    1.671986e+01
  1.148775e+01    1.649225e+01
  1.149571e+01    1.626113e+01
  1.150366e+01    1.603485e+01
  1.151161e+01    1.573709e+01
  1.151956e+01    1.521986e+01
  1.152752e+01    1.454463e+01
  1.153547e+01    1.382904e+01
  1.154342e+01    1.312047e+01
  1.155138e+01    1.245574e+01
  1.155933e+01    1.186924e+01
  1.156728e+01    1.132969e+01
  1.157523e+01    1.081390e+01
  1.158319e+01    1.043859e+01
  1.159114e+01    1.014112e+01
  1.159909e+01    9.899920e+00
  1.160704e+01    9.783378e+00
  1.161500e+01    9.697474e+00
  1.162295e+01    9.605770e+00
  1.163090e+01    9.478509e+00
  1.163886e+01    9.500932e+00
  1.164681e+01    9.501568e+00
  1.165476e+01    9.498428e+00
  1.166271e+01    9.410936e+00
  1.167067e+01    9.305697e+00
  1.167862e+01    9.274125e+00
  1.168657e+01    9.328011e+00
  1.169453e+01    9.377493e+00
  1.170248e+01    9.393261e+00
  1.171043e+01    9.366436e+00
  1.171838e+01    9.331079e+00
  1.172634e+01    9.365029e+00
  1.173429e+01    9.394038e+00
  1.174224e+01    9.384017e+00
  1.175019e+01    9.387758e+00
  1.175815e+01    9.429172e+00
  1.176610e+01    9.522415e+00
  1.177405e+01    9.550901e+00
  1.178201e+01    9.503728e+00
  1.178996e+01    9.525421e+00
  1.179791e+01    9.537642e+00
  1.180586e+01    9.516116e+00
  1.181382e+01    9.494859e+00
  1.182177e+01    9.522904e+00
  1.182972e+01    9.546616e+00
  1.183767e+01    9.615715e+00
  1.184563e+01    9.616532e+00
  1.185358e+01    9.618043e+00
  1.186153e+01    9.610776e+00
  1.186949e+01    9.645931e+00
  1.187744e+01    9.698686e+00
  1.188539e+01    9.798023e+00
  1.189334e+01    9.864472e+00
  1.190130e+01    9.956509e+00
  1.190925e+01    1.006018e+01
  1.191720e+01    1.017109e+01
  1.192515e+01    1.036223e+01
  1.193311e+01    1.065683e+01
  1.194106e+01    1.096243e+01
  1.194901e+01    1.121892e+01
  1.195697e+01    1.153225e+01
  1.196492e+01    1.187864e+01
  1.197287e+01    1.223025e+01
  1.198082e+01    1.251913e+01
  1.198878e+01    1.278204e+01
  1.199673e+01    1.306081e+01
  1.200468e+01    1.323691e+01
  1.201264e+01    1.332032e+01
  1.202059e+01    1.332122e+01
  1.202854e+01    1.332200e+01
  1.203649e+01    1.333887e+01
  1.204445e+01    1.334414e+01
  1.205240e+01    1.329370e+01
  1.206035e+01    1.322762e+01
  1.206830e+01    1.315736e+01
  1.207626e+01    1.305832e+01
  1.208421e+01    1.297411e+01
  1.209216e+01    1.293128e+01
  1.210012e+01    1.288459e+01
  1.210807e+01    1.276528e+01
  1.211602e+01    1.268001e+01
  1.212397e+01    1.256660e+01
  1.213193e+01    1.238201e+01
  1.213988e+01    1.216536e+01
  1.214783e+01    1.186003e+01
  1.215578e+01    1.149569e+01
  1.216374e+01    1.114757e+01
  1.217169e+01    1.082778e+01
  1.217964e+01    1.045148e+01
  1.218760e+01    1.014168e+01
  1.219555e+01    9.865031e+00
  1.220350e+01    9.640559e+00
  1.221145e+01    9.466671e+00
  1.221941e+01    9.390611e+00
  1.222736e+01    9.299740e+00
  1.223531e+01    9.226626e+00
  1.224327e+01    9.175719e+00
  1.225122e+01    9.169172e+00
  1.225917e+01    9.165087e+00
  1.226712e+01    9.132200e+00
  1.227508e+01    9.123324e+00
  1.228303e+01    9.113992e+00
  1.229098e+01    9.144586e+00
  1.229893e+01    9.242977e+00
  1.230689e+01    9.332964e+00
  1.231484e+01    9.356894e+00
  1.232279e+01    9.394216e+00
  1.233075e+01    9.471748e+00
  1.233870e+01    9.548885e+00
  1.234665e+01    9.624774e+00
  1.235460e+01    9.711133e+00
  1.236256e+01    9.847013e+00
  1.237051e+01    1.004008e+01
  1.237846e+01    1.029344e+01
  1.238641e+01    1.065232e+01
  1.239437e+01    1.096577e+01
  1.240232e+01    1.130140e+01
  1.241027e+01    1.158875e+01
  1.241823e+01    1.189637e+01
  1.242618e+01    1.220252e+01
  1.243413e+01    1.247266e+01
  1.244208e+01    1.267263e+01
  1.245004e+01    1.276019e+01
  1.245799e+01    1.281403e+01
  1.246594e+01    1.287245e+01
  1.247389e+01    1.298220e+01
  1.248185e+01    1.303571e+01
  1.248980e+01    1.304890e+01
  1.249775e+01    1.309853e+01
  1.250571e+01    1.320983e+01
  1.251366e+01    1.337107e+01
  1.252161e+01    1.351397e+01
  1.252956e+01    1.365655e+01
  1.253752e+01    1.385276e+01
  1.254547e+01    1.410862e+01
  1.255342e+01    1.433941e+01
  1.256138e+01    1.450739e+01
  1.256933e+01    1.474083e+01
  1.257728e+01    1.484561e+01
  1.258523e+01    1.482592e+01
  1.259319e+01    1.472960e+01
  1.260114e+01    1.456537e+01
  1.260909e+01    1.436071e+01
  1.261704e+01    1.414168e+01
  1.262500e+01    1.394842e+01
  1.263295e+01    1.439516e+01
  1.264090e+01    1.460516e+01
  1.264886e+01    1.469309e+01
  1.265681e+01    1.482494e+01
  1.266476e+01    1.500861e+01
  1.267271e+01    1.514895e+01
  1.268067e+01    1.527574e+01
  1.268862e+01    1.540209e+01
  1.269657e+01    1.557839e+01
  1.270452e+01    1.549943e+01
  1.271248e+01    1.537014e+01
  1.272043e+01    1.532141e+01
  1.272838e+01    1.509327e+01
  1.273634e+01    1.432174e+01
  1.274429e+01    1.364396e+01
  1.275224e+01    1.299549e+01
  1.276019e+01    1.255580e+01
  1.276815e+01    1.220327e+01
  1.277610e+01    1.182943e+01
  1.278405e+01    1.147205e+01
  1.279201e+01    1.114946e+01
  1.279996e+01    1.087732e+01
  1.280791e+01    1.062954e+01
  1.281586e+01    1.038908e+01
  1.282382e+01    1.015333e+01
  1.283177e+01    1.010365e+01
  1.283972e+01    1.005443e+01
  1.284767e+01    9.974607e+00
  1.285563e+01    9.833672e+00
  1.286358e+01    9.727608e+00
  1.287153e+01    9.643877e+00
  1.287949e+01    9.558468e+00
  1.288744e+01    9.489392e+00
  1.289539e+01    9.515162e+00
  1.290334e+01    9.508122e+00
  1.291130e+01    9.419128e+00
  1.291925e+01    9.302561e+00
  1.292720e+01    9.300784e+00
  1.293515e+01    9.328242e+00
  1.294311e+01    9.322009e+00
  1.295106e+01    9.224140e+00
  1.295901e+01    9.181031e+00
  1.296697e+01    9.115771e+00
  1.297492e+01    9.122505e+00
  1.298287e+01    9.116521e+00
  1.299082e+01    9.056424e+00
  1.299878e+01    9.034884e+00
  1.300673e+01    9.074073e+00
  1.301468e+01    9.100733e+00
  1.302263e+01    9.045591e+00
  1.303059e+01    9.022412e+00
  1.303854e+01    8.961090e+00
  1.304649e+01    8.959436e+00
  1.305445e+01    8.932255e+00
  1.306240e+01    8.927550e+00
  1.307035e+01    8.969764e+00
  1.307830e+01    9.063039e+00
  1.308626e+01    9.153747e+00
  1.309421e+01    9.163765e+00
  1.310216e+01    9.267940e+00
  1.311012e+01    9.285091e+00
  1.311807e+01    9.339493e+00
  1.312602e+01    9.366208e+00
  1.313397e+01    9.478447e+00
  1.314193e+01    9.499798e+00
  1.314988e+01    9.491714e+00
  1.315783e+01    9.510220e+00
  1.316578e+01    9.480138e+00
  1.317374e+01    9.491910e+00
  1.318169e+01    9.457127e+00
  1.318964e+01    9.465245e+00
  1.319760e+01    9.415414e+00
  1.320555e+01    9.364625e+00
  1.321350e+01    9.350604e+00
  1.322145e+01    9.395686e+00
  1.322941e+01    9.368410e+00
  1.323736e+01    9.385661e+00
  1.324531e+01    9.480081e+00
  1.325326e+01    9.565323e+00
  1.326122e+01    9.600737e+00
  1.326917e+01    9.594792e+00
  1.327712e+01    9.559535e+00
  1.328508e+01    9.557886e+00
  1.329303e+01    9.528521e+00
  1.330098e+01    9.475156e+00
  1.330893e+01    9.343951e+00
  1.331689e+01    9.256652e+00
  1.332484e+01    9.212625e+00
  1.333279e+01    9.194390e+00
  1.334075e+01    9.134795e+00
  1.334870e+01    9.081120e+00
  1.335665e+01    9.034752e+00
  1.336460e+01    8.970739e+00
  1.337256e+01    8.924932e+00
  1.338051e+01    8.931963e+00
  1.338846e+01    8.947390e+00
  1.339641e+01    8.956673e+00
  1.340437e+01    8.909142e+00
  1.341232e+01    8.850381e+00
  1.342027e+01    8.791445e+00
  1.342823e+01    8.807920e+00
  1.343618e+01    8.829573e+00
  1.344413e+01    8.878119e+00
  1.345208e+01    8.967126e+00
  1.346004e+01    9.128419e+00
  1.346799e+01    9.281354e+00
  1.347594e+01    9.450359e+00
  1.348389e+01    9.632818e+00
  1.349185e+01    9.971416e+00
  1.349980e+01    1.028588e+01
  1.350775e+01    1.069324e+01
  1.351571e+01    1.109863e+01
  1.352366e+01    1.144283e+01
  1.353161e+01    1.176761e+01
  1.353956e+01    1.207593e+01
  1.354752e+01    1.236826e+01
  1.355547e+01    1.251136e+01
  1.356342e+01    1.259211e+01
  1.357138e+01    1.271671e+01
  1.357933e+01    1.284220e+01
  1.358728e+01    1.288966e+01
  1.359523e+01    1.292579e+01
  1.360319e+01    1.293439e+01
  1.361114e+01    1.304554e+01
  1.361909e+01    1.318782e+01
  1.362704e+01    1.342130e+01
  1.363500e+01    1.353887e+01
  1.364295e+01    1.367235e+01
  1.365090e+01    1.379487e+01
  1.365886e+01    1.388919e+01
  1.366681e+01    1.407012e+01
  1.367476e+01    1.421907e+01
  1.368271e+01    1.430643e+01
  1.369067e+01    1.431370e+01
  1.369862e+01    1.429084e+01
  1.370657e+01    1.414444e+01
  1.371452e+01    1.395402e+01
  1.372248e+01    1.379904e+01
  1.373043e+01    1.359411e+01
  1.373838e+01    1.325062e+01
  1.374634e+01    1.279663e+01
  1.375429e+01    1.236492e+01
  1.376224e+01    1.205787e+01
  1.377019e+01    1.181113e+01
  1.377815e+01    1.162311e+01
  1.378610e+01    1.145256e+01
  1.379405e+01    1.118871e+01
  1.380200e+01    1.099830e+01
  1.380996e+01    1.081492e+01
  1.381791e+01    1.076837e+01
  1.382586e+01    1.063893e+01
  1.383382e+01    1.050658e+01
  1.384177e+01    1.034621e+01
  1.384972e+01    1.020634e+01
  1.385767e+01    1.008045e+01
  1.386563e+01    9.988420e+00
  1.387358e+01    9.860070e+00
  1.388153e+01    9.742743e+00
  1.388949e+01    9.547152e+00
  1.389744e+01    9.323313e+00
  1.390539e+01    9.156740e+00
  1.391334e+01    9.097725e+00
  1.392130e+01    9.067838e+00
  1.392925e+01    8.988498e+00
  1.393720e+01    8.917720e+00
  1.394515e+01    8.872609e+00
  1.395311e+01    8.869646e+00
  1.396106e+01    8.791799e+00
  1.396901e+01    8.726441e+00
  1.397697e+01    8.691279e+00
  1.398492e+01    8.690505e+00
  1.399287e+01    8.644331e+00
  1.400082e+01    8.628628e+00
  1.400878e+01    8.674329e+00
  1.401673e+01    8.649622e+00
  1.402468e+01    8.626165e+00
  1.403263e+01    8.581534e+00
  1.404059e+01    8.591723e+00
  1.404854e+01    8.547665e+00
  1.405649e+01    8.591140e+00
  1.406445e+01    8.607762e+00
  1.407240e+01    8.606690e+00
  1.408035e+01    8.613367e+00
  1.408830e+01    8.667652e+00
  1.409626e+01    8.744540e+00
  1.410421e+01    8.798592e+00
  1.411216e+01    8.901946e+00
  1.412012e+01    9.021568e+00
  1.412807e+01    9.145997e+00
  1.413602e+01    9.305160e+00
  1.414397e+01    9.513465e+00
  1.415193e+01    9.810163e+00
  1.415988e+01    1.008455e+01
  1.416783e+01    1.030928e+01
  1.417578e+01    1.044919e+01
  1.418374e+01    1.059986e+01
  1.419169e+01    1.075248e+01
  1.419964e+01    1.095238e+01
  1.420760e+01    1.113801e+01
  1.421555e+01    1.121118e+01
  1.422350e+01    1.119342e+01
  1.423145e+01    1.123291e+01
  1.423941e+01    1.124964e+01
  1.424736e+01    1.121826e+01
  1.425531e+01    1.120738e+01
  1.426326e+01    1.124120e+01
  1.427122e+01    1.127294e+01
  1.427917e+01    1.128329e+01
  1.428712e+01    1.125022e+01
  1.429508e+01    1.121056e+01
  1.430303e+01    1.130836e+01
  1.431098e+01    1.136181e+01
  1.431893e+01    1.140574e+01
  1.432689e+01    1.128647e+01
  1.433484e+01    1.128781e+01
  1.434279e+01    1.124671e+01
  1.435074e+01    1.125254e+01
  1.435870e+01    1.122574e+01
  1.436665e+01    1.121903e+01
  1.437460e+01    1.116821e+01
  1.438256e+01    1.101741e+01
  1.439051e+01    1.080371e+01
  1.439846e+01    1.054441e+01
  1.440641e+01    1.035422e+01
  1.441437e+01    1.008406e+01
  1.442232e+01    9.815949e+00
  1.443027e+01    9.542878e+00
  1.443823e+01    9.377294e+00
  1.444618e+01    9.248725e+00
  1.445413e+01    9.125805e+00
  1.446208e+01    9.003982e+00
  1.447004e+01    8.993310e+00
  1.447799e+01    9.007632e+00
  1.448594e+01    9.061649e+00
  1.449389e+01    9.126945e+00
  1.450185e+01    9.243864e+00
  1.450980e+01    9.399235e+00
  1.451775e+01    9.594622e+00
  1.452571e+01    9.831240e+00
  1.453366e+01    1.007993e+01
  1.454161e+01    1.030234e+01
  1.454956e+01    1.060505e+01
  1.455752e+01    1.092523e+01
  1.456547e+01    1.122868e+01
  1.457342e+01    1.136630e+01
  1.458137e+01    1.146176e+01
  1.458933e+01    1.148723e+01
  1.459728e+01    1.160121e+01
  1.460523e+01    1.166916e+01
  1.461319e+01    1.167533e+01
  1.462114e+01    1.165340e+01
  1.462909e+01    1.164784e+01
  1.463704e+01    1.168632e+01
  1.464500e+01    1.169925e+01
  1.465295e+01    1.173908e+01
  1.466090e+01    1.167417e+01
  1.466886e+01    1.166264e+01
  1.467681e+01    1.169050e+01
  1.468476e+01    1.162809e+01
  1.469271e+01    1.156772e+01
  1.470067e+01    1.152173e+01
  1.470862e+01    1.152469e+01
  1.471657e+01    1.148529e+01
  1.472452e+01    1.157304e+01
  1.473248e+01    1.159061e+01
  1.474043e+01    1.160094e+01
  1.474838e+01    1.153652e+01
  1.475634e+01    1.134074e+01
  1.476429e+01    1.109388e+01
  1.477224e+01    1.078583e+01
  1.478019e+01    1.050897e+01
  1.478815e+01    1.022457e+01
  1.479610e+01    9.996128e+00
  1.480405e+01    9.752378e+00
  1.481200e+01    9.477271e+00
  1.481996e+01    9.206072e+00
  1.482791e+01    8.939923e+00
  1.483586e+01    8.711691e+00
  1.484382e+01    8.461502e+00
  1.485177e+01    8.268280e+00
  1.485972e+01    8.165262e+00
  1.486767e+01    8.110189e+00
  1.487563e+01    8.079803e+00
  1.488358e+01    8.099991e+00
  1.489153e+01    8.077211e+00
  1.489948e+01    8.096214e+00
  1.490744e+01    8.074632e+00
  1.491539e+01    8.035509e+00
  1.492334e+01    7.939297e+00
  1.493130e+01    7.958599e+00
  1.493925e+01    8.040539e+00
  1.494720e+01    8.030898e+00
  1.495515e+01    7.932726e+00
  1.496311e+01    7.885356e+00
  1.497106e+01    7.887450e+00
  1.497901e+01    7.889338e+00
  1.498697e+01    7.905592e+00
  1.499492e+01    7.908389e+00
  1.500287e+01    7.880235e+00
  1.501082e+01    7.892330e+00
  1.501878e+01    7.850164e+00
  1.502673e+01    7.859523e+00
  1.503468e+01    7.801754e+00
  1.504263e+01    7.794911e+00
  1.505059e+01    7.767159e+00
  1.505854e+01    7.781261e+00
  1.506649e+01    7.834470e+00
  1.507445e+01    7.867087e+00
  1.508240e+01    7.844745e+00
  1.509035e+01    7.726921e+00
  1.509830e+01    7.700006e+00
  1.510626e+01    7.728970e+00
  1.511421e+01    7.771500e+00
  1.512216e+01    7.832915e+00
  1.513011e+01    7.842250e+00
  1.513807e+01    7.805222e+00
  1.514602e+01    7.749931e+00
  1.515397e+01    7.828837e+00
  1.516193e+01    7.939179e+00
  1.516988e+01    7.951027e+00
  1.517783e+01    7.834996e+00
  1.518578e+01    7.823531e+00
  1.519374e+01    7.815080e+00
  1.520169e+01    7.824205e+00
  1.520964e+01    7.810531e+00
  1.521760e+01    7.865718e+00
  1.522555e+01    7.860234e+00
  1.523350e+01    7.846385e+00
  1.524145e+01    7.802143e+00
  1.524941e+01    7.795910e+00
  1.525736e+01    7.762293e+00
  1.526531e+01    7.753958e+00
  1.527326e+01    7.781033e+00
  1.528122e+01    7.782709e+00
  1.528917e+01    7.717241e+00
  1.529712e+01    7.648960e+00
  1.530508e+01    7.635279e+00
  1.531303e+01    7.694531e+00
  1.532098e+01    7.662471e+00
  1.532893e+01    7.613620e+00
  1.533689e+01    7.598508e+00
  1.534484e+01    7.598594e+00
  1.535279e+01    7.593485e+00
  1.536074e+01    7.694329e+00
  1.536870e+01    7.771444e+00
  1.537665e+01    7.772082e+00
  1.538460e+01    7.699948e+00
  1.539256e+01    7.734114e+00
  1.540051e+01    7.717750e+00
  1.540846e+01    7.705710e+00
  1.541641e+01    7.678012e+00
  1.542437e+01    7.686947e+00
  1.543232e+01    7.682974e+00
  1.544027e+01    7.622431e+00
  1.544822e+01    7.536078e+00
  1.545618e+01    7.560997e+00
  1.546413e+01    7.682692e+00
  1.547208e+01    7.735567e+00
  1.548004e+01    7.768571e+00
  1.548799e+01    7.814904e+00
  1.549594e+01    7.885486e+00
  1.550389e+01    7.972938e+00
  1.551185e+01    7.988189e+00
  1.551980e+01    8.057307e+00
  1.552775e+01    8.127421e+00
  1.553571e+01    8.190272e+00
  1.554366e+01    8.158679e+00
  1.555161e+01    8.187259e+00
  1.555956e+01    8.273716e+00
  1.556752e+01    8.345309e+00
  1.557547e+01    8.323318e+00
  1.558342e+01    8.406175e+00
  1.559137e+01    8.502130e+00
  1.559933e+01    8.605880e+00
  1.560728e+01    8.709061e+00
  1.561523e+01    8.804156e+00
  1.562319e+01    8.863499e+00
  1.563114e+01    8.940227e+00
  1.563909e+01    9.056681e+00
  1.564704e+01    9.234210e+00
  1.565500e+01    9.380260e+00
  1.566295e+01    9.449462e+00
  1.567090e+01    9.492315e+00
  1.567885e+01    9.563046e+00
  1.568681e+01    9.600828e+00
  1.569476e+01    9.628006e+00
  1.570271e+01    9.637833e+00
  1.571067e+01    9.690001e+00
  1.571862e+01    9.578217e+00
  1.572657e+01    9.497564e+00
  1.573452e+01    9.435454e+00
  1.574248e+01    9.451694e+00
  1.575043e+01    9.547770e+00
  1.575838e+01    9.738051e+00
  1.576634e+01    9.685805e+00
  1.577429e+01    9.580285e+00
  1.578224e+01    9.392087e+00
  1.579019e+01    9.304956e+00
  1.579815e+01    9.247439e+00
  1.580610e+01    9.245106e+00
  1.581405e+01    9.273349e+00
  1.582200e+01    9.185894e+00
  1.582996e+01    9.059522e+00
  1.583791e+01    9.024511e+00
  1.584586e+01    9.058644e+00
  1.585382e+01    9.023916e+00
  1.586177e+01    8.915392e+00
  1.586972e+01    8.831589e+00
  1.587767e+01    8.748109e+00
  1.588563e+01    8.655828e+00
  1.589358e+01    8.569266e+00
  1.590153e+01    8.441358e+00
  1.590948e+01    8.355182e+00
  1.591744e+01    8.159968e+00
  1.592539e+01    8.046721e+00
  1.593334e+01    7.921118e+00
  1.594130e+01    7.853400e+00
  1.594925e+01    7.837948e+00
  1.595720e+01    7.829149e+00
  1.596515e+01    7.824912e+00
  1.597311e+01    7.832328e+00
  1.598106e+01    7.795232e+00
  1.598901e+01    7.749161e+00
  1.599697e+01    7.767559e+00
  1.600492e+01    7.820150e+00
  1.601287e+01    7.829367e+00
  1.602082e+01    7.926444e+00
  1.602878e+01    7.909215e+00
  1.603673e+01    7.954769e+00
  1.604468e+01    7.923520e+00
  1.605263e+01    7.971748e+00
  1.606059e+01    7.985667e+00
  1.606854e+01    7.956214e+00
  1.607649e+01    8.064169e+00
  1.608445e+01    8.127835e+00
  1.609240e+01    8.257821e+00
  1.610035e+01    8.342993e+00
  1.610830e+01    8.450675e+00
  1.611626e+01    8.563538e+00
  1.612421e+01    8.663502e+00
  1.613216e+01    8.631659e+00
  1.614011e+01    8.506977e+00
  1.614807e+01    8.491656e+00
  1.615602e+01    8.582986e+00
  1.616397e+01    8.558873e+00
  1.617193e+01    8.531125e+00
  1.617988e+01    8.538035e+00
  1.618783e+01    8.573005e+00
  1.619578e+01    8.507504e+00
  1.620374e+01    8.571579e+00
  1.621169e+01    8.659832e+00
  1.621964e+01    8.700031e+00
  1.622759e+01    8.698985e+00
  1.623555e+01    8.709865e+00
  1.624350e+01    8.720053e+00
  1.625145e+01    8.643285e+00
  1.625941e+01    8.629568e+00
  1.626736e+01    8.703927e+00
  1.627531e+01    8.774104e+00
  1.628326e+01    8.646433e+00
  1.629122e+01    8.535874e+00
  1.629917e+01    8.540920e+00
  1.630712e+01    8.649229e+00
  1.631508e+01    8.734142e+00
  1.632303e+01    8.779564e+00
  1.633098e+01    8.663586e+00
  1.633893e+01    8.457310e+00
  1.634689e+01    8.304064e+00
  1.635484e+01    8.372307e+00
  1.636279e+01    8.435775e+00
  1.637074e+01    8.403301e+00
  1.637870e+01    8.389722e+00
  1.638665e+01    8.316553e+00
  1.639460e+01    8.322354e+00
  1.640256e+01    8.341862e+00
  1.641051e+01    8.449775e+00
  1.641846e+01    8.565205e+00
  1.642641e+01    8.674304e+00
  1.643437e+01    8.841167e+00
  1.644232e+01    8.936158e+00
  1.645027e+01    9.011608e+00
  1.645822e+01    9.082350e+00
  1.646618e+01    9.038404e+00
  1.647413e+01    9.038509e+00
  1.648208e+01    9.042031e+00
  1.649004e+01    9.118216e+00
  1.649799e+01    9.101387e+00
  1.650594e+01    9.107393e+00
  1.651389e+01    9.140485e+00
  1.652185e+01    9.308607e+00
  1.652980e+01    9.461305e+00
  1.653775e+01    9.474874e+00
  1.654571e+01    9.284295e+00
  1.655366e+01    9.226740e+00
  1.656161e+01    9.287393e+00
  1.656956e+01    9.426546e+00
  1.657752e+01    9.349754e+00
  1.658547e+01    9.176823e+00
  1.659342e+01    9.092603e+00
  1.660137e+01    9.126461e+00
  1.660933e+01    9.278994e+00
  1.661728e+01    9.362271e+00
  1.662523e+01    9.429914e+00
  1.663319e+01    9.299525e+00
  1.664114e+01    9.223738e+00
  1.664909e+01    9.223694e+00
  1.665704e+01    9.148412e+00
  1.666500e+01    9.054519e+00
  1.667295e+01    8.995020e+00
  1.668090e+01    8.906683e+00
  1.668885e+01    8.834154e+00
  1.669681e+01    8.783636e+00
  1.670476e+01    8.867861e+00
  1.671271e+01    8.861897e+00
  1.672067e+01    8.751481e+00
  1.672862e+01    8.545888e+00
  1.673657e+01    8.442870e+00
  1.674452e+01    8.356400e+00
  1.675248e+01    8.267870e+00
  1.676043e+01    8.128068e+00
  1.676838e+01    8.162272e+00
  1.677633e+01    8.104427e+00
  1.678429e+01    8.147954e+00
  1.679224e+01    8.034148e+00
  1.680019e+01    7.966143e+00
  1.680815e+01    7.865390e+00
  1.681610e+01    7.826150e+00
  1.682405e+01    7.844433e+00
  1.683200e+01    7.855410e+00
  1.683996e+01    7.785194e+00
  1.684791e+01    7.708208e+00
  1.685586e+01    7.656435e+00
  1.686382e+01    7.733856e+00
  1.687177e+01    7.713309e+00
  1.687972e+01    7.739316e+00
  1.688767e+01    7.674002e+00
  1.689563e+01    7.658746e+00
  1.690358e+01    7.691730e+00
  1.691153e+01    7.689653e+00
  1.691948e+01    7.630170e+00
  1.692744e+01    7.561554e+00
  1.693539e+01    7.569257e+00
  1.694334e+01    7.648369e+00
  1.695130e+01    7.778228e+00
  1.695925e+01    7.943664e+00
  1.696720e+01    8.010192e+00
  1.697515e+01    8.110802e+00
  1.698311e+01    8.170300e+00
  1.699106e+01    8.137003e+00
  1.699901e+01    7.998669e+00
  1.700696e+01    7.976421e+00
  1.701492e+01    7.968287e+00
  1.702287e+01    7.884359e+00
  1.703082e+01    7.856216e+00
  1.703878e+01    7.832939e+00
  1.704673e+01    7.936944e+00
  1.705468e+01    7.931891e+00
  1.706263e+01    8.034679e+00
  1.707059e+01    8.008284e+00
  1.707854e+01    7.915311e+00
  1.708649e+01    7.807531e+00
  1.709445e+01    7.815377e+00
  1.710240e+01    7.930902e+00
  1.711035e+01    7.879755e+00
  1.711830e+01    7.903318e+00
  1.712626e+01    7.832223e+00
  1.713421e+01    7.751863e+00
  1.714216e+01    7.672634e+00
  1.715011e+01    7.781049e+00
  1.715807e+01    7.903342e+00
  1.716602e+01    7.882932e+00
  1.717397e+01    7.798899e+00
  1.718193e+01    7.746961e+00
  1.718988e+01    7.741344e+00
  1.719783e+01    7.843481e+00
  1.720578e+01    7.826203e+00
  1.721374e+01    7.828958e+00
  1.722169e+01    7.703646e+00
  1.722964e+01    7.640200e+00
  1.723759e+01    7.599641e+00
  1.724555e+01    7.684905e+00
  1.725350e+01    7.661441e+00
  1.726145e+01    7.514597e+00
  1.726941e+01    7.516996e+00
  1.727736e+01    7.505906e+00
  1.728531e+01    7.566997e+00
  1.729326e+01    7.596078e+00
  1.730122e+01    7.648966e+00
  1.730917e+01    7.679831e+00
  1.731712e+01    7.581913e+00
  1.732507e+01    7.549484e+00
  1.733303e+01    7.541748e+00
  1.734098e+01    7.760470e+00
  1.734893e+01    7.850986e+00
  1.735689e+01    7.962219e+00
  1.736484e+01    7.948601e+00
  1.737279e+01    8.044641e+00
  1.738074e+01    8.140240e+00
  1.738870e+01    8.148965e+00
  1.739665e+01    8.149377e+00
  1.740460e+01    8.024580e+00
  1.741256e+01    8.055557e+00
  1.742051e+01    8.112593e+00
  1.742846e+01    8.207644e+00
  1.743641e+01    8.235243e+00
  1.744437e+01    8.219241e+00
  1.745232e+01    8.215570e+00
  1.746027e+01    8.244208e+00
  1.746822e+01    8.252650e+00
  1.747618e+01    8.192614e+00
  1.748413e+01    8.261100e+00
  1.749208e+01    8.284500e+00
  1.750004e+01    8.240162e+00
  1.750799e+01    7.980076e+00
  1.751594e+01    8.098348e+00
  1.752389e+01    8.208220e+00
  1.753185e+01    8.308466e+00
  1.753980e+01    8.115589e+00
  1.754775e+01    8.068143e+00
  1.755570e+01    7.953587e+00
  1.756366e+01    7.872569e+00
  1.757161e+01    7.744576e+00
  1.757956e+01    7.687116e+00
  1.758752e+01    7.641532e+00
  1.759547e+01    7.639902e+00
  1.760342e+01    7.621312e+00
  1.761137e+01    7.559970e+00
  1.761933e+01    7.451109e+00
  1.762728e+01    7.419498e+00
  1.763523e+01    7.471563e+00
  1.764319e+01    7.419405e+00
  1.765114e+01    7.384890e+00
  1.765909e+01    7.243814e+00
  1.766704e+01    7.090532e+00
  1.767500e+01    6.914704e+00
  1.768295e+01    6.859071e+00
  1.769090e+01    6.893349e+00
  1.769885e+01    7.016764e+00
  1.770681e+01    6.979993e+00
  1.771476e+01    6.860239e+00
  1.772271e+01    6.757497e+00
  1.773067e+01    6.643576e+00
  1.773862e+01    6.642440e+00
  1.774657e+01    6.599974e+00
  1.775452e+01    6.694338e+00
  1.776248e+01    6.615792e+00
  1.777043e+01    6.568325e+00
  1.777838e+01    6.420047e+00
  1.778633e+01    6.352936e+00
  1.779429e+01    6.300309e+00
  1.780224e+01    6.374224e+00
  1.781019e+01    6.325479e+00
  1.781815e+01    6.300558e+00
  1.782610e+01    6.180473e+00
  1.783405e+01    6.066019e+00
  1.784200e+01    5.908102e+00
  1.784996e+01    5.817175e+00
  1.785791e+01    5.848547e+00
  1.786586e+01    5.847666e+00
  1.787382e+01    5.902735e+00
  1.788177e+01    5.879940e+00
  1.788972e+01    5.840228e+00
  1.789767e+01    5.781112e+00
  1.790563e+01    5.705778e+00
  1.791358e+01    5.773132e+00
  1.792153e+01    5.846882e+00
  1.792948e+01    5.802584e+00
  1.793744e+01    5.736220e+00
  1.794539e+01    5.776170e+00
  1.795334e+01    5.843045e+00
  1.796130e+01    5.769472e+00
  1.796925e+01    5.707645e+00
  1.797720e+01    5.604717e+00
  1.798515e+01    5.667621e+00
  1.799311e+01    5.726545e+00
  1.800106e+01    5.833643e+00
  1.800901e+01    5.685549e+00
  1.801696e+01    5.737199e+00
  1.802492e+01    5.810120e+00
  1.803287e+01    5.854045e+00
  1.804082e+01    5.796079e+00
  1.804878e+01    5.860034e+00
  1.805673e+01    5.961238e+00
  1.806468e+01    5.911590e+00
  1.807263e+01    5.802646e+00
  1.808059e+01    5.726801e+00
  1.808854e+01    5.786363e+00
  1.809649e+01    5.740201e+00
  1.810444e+01    5.741350e+00
  1.811240e+01    5.672765e+00
  1.812035e+01    5.791213e+00
  1.812830e+01    5.772435e+00
  1.813626e+01    5.716500e+00
  1.814421e+01    5.662306e+00
  1.815216e+01    5.691469e+00
  1.816011e+01    5.819766e+00
  1.816807e+01    5.892494e+00
  1.817602e+01    5.907794e+00
  1.818397e+01    5.830667e+00
  1.819193e+01    5.844721e+00
  1.819988e+01    5.962782e+00
  1.820783e+01    5.993991e+00
  1.821578e+01    6.049258e+00
  1.822374e+01    5.897195e+00
  1.823169e+01    5.865407e+00
  1.823964e+01    5.786607e+00
  1.824759e+01    5.746993e+00
  1.825555e+01    5.740215e+00
  1.826350e+01    5.817378e+00
  1.827145e+01    5.992293e+00
  1.827941e+01    6.055672e+00
  1.828736e+01    6.074726e+00
  1.829531e+01    5.979492e+00
  1.830326e+01    5.968337e+00
  1.831122e+01    5.828806e+00
  1.831917e+01    5.795582e+00
  1.832712e+01    5.778819e+00
  1.833507e+01    5.897292e+00
  1.834303e+01    5.965383e+00
  1.835098e+01    6.015290e+00
  1.835893e+01    5.971378e+00
  1.836689e+01    5.873706e+00
  1.837484e+01    5.779523e+00
  1.838279e+01    5.815034e+00
  1.839074e+01    5.879845e+00
  1.839870e+01    5.881172e+00
  1.840665e+01    5.763531e+00
  1.841460e+01    5.635057e+00
  1.842256e+01    5.541223e+00
  1.843051e+01    5.511259e+00
  1.843846e+01    5.639850e+00
  1.844641e+01    5.767957e+00
  1.845437e+01    5.761089e+00
  1.846232e+01    5.577934e+00
  1.847027e+01    5.371002e+00
  1.847822e+01    5.363177e+00
  1.848618e+01    5.526796e+00
  1.849413e+01    5.591960e+00
  1.850208e+01    5.451302e+00
  1.851004e+01    5.347520e+00
  1.851799e+01    5.491424e+00
  1.852594e+01    5.517532e+00
  1.853389e+01    5.512082e+00
  1.854185e+01    5.455287e+00
  1.854980e+01    5.456285e+00
  1.855775e+01    5.476383e+00
  1.856570e+01    5.534253e+00
  1.857366e+01    5.653147e+00
  1.858161e+01    5.648199e+00
  1.858956e+01    5.558774e+00
  1.859752e+01    5.454762e+00
  1.860547e+01    5.501666e+00
  1.861342e+01    5.492381e+00
  1.862137e+01    5.663184e+00
  1.862933e+01    5.768169e+00
  1.863728e+01    5.776353e+00
  1.864523e+01    5.632838e+00
  1.865318e+01    5.653455e+00
  1.866114e+01    5.828269e+00
  1.866909e+01    5.790270e+00
  1.867704e+01    5.783423e+00
  1.868500e+01    5.887018e+00
  1.869295e+01    5.948823e+00
  1.870090e+01    5.882446e+00
  1.870885e+01    5.776887e+00
  1.871681e+01    5.770461e+00
  1.872476e+01    5.717207e+00
  1.873271e+01    5.611430e+00
  1.874067e+01    5.523893e+00
  1.874862e+01    5.541850e+00
  1.875657e+01    5.692122e+00
  1.876452e+01    5.708303e+00
  1.877248e+01    5.734031e+00
  1.878043e+01    5.722820e+00
  1.878838e+01    5.704346e+00
  1.879633e+01    5.598697e+00
  1.880429e+01    5.603447e+00
  1.881224e+01    5.556182e+00
  1.882019e+01    5.540211e+00
  1.882815e+01    5.593987e+00
  1.883610e+01    5.672675e+00
  1.884405e+01    5.560124e+00
  1.885200e+01    5.475364e+00
  1.885996e+01    5.492832e+00
  1.886791e+01    5.695087e+00
  1.887586e+01    5.834548e+00
  1.888381e+01    5.866619e+00
  1.889177e+01    5.818591e+00
  1.889972e+01    5.967770e+00
  1.890767e+01    5.994843e+00
  1.891563e+01    5.833694e+00
  1.892358e+01    5.741063e+00
  1.893153e+01    5.851669e+00
  1.893948e+01    5.792968e+00
  1.894744e+01    5.584251e+00
  1.895539e+01    5.658432e+00
  1.896334e+01    5.874483e+00
  1.897130e+01    5.997819e+00
  1.897925e+01    6.127779e+00
  1.898720e+01    6.188933e+00
  1.899515e+01    6.250798e+00
  1.900311e+01    6.118850e+00
  1.901106e+01    6.086607e+00
  1.901901e+01    6.000998e+00
  1.902696e+01    5.947473e+00
  1.903492e+01    5.886836e+00
  1.904287e+01    5.761121e+00
  1.905082e+01    5.755774e+00
  1.905878e+01    5.818330e+00
  1.906673e+01    5.995834e+00
  1.907468e+01    5.956780e+00
  1.908263e+01    5.879312e+00
  1.909059e+01    5.861976e+00
  1.909854e+01    6.082390e+00
  1.910649e+01    6.112784e+00
  1.911444e+01    6.058882e+00
  1.912240e+01    6.005164e+00
  1.913035e+01    5.989888e+00
  1.913830e+01    5.948429e+00
  1.914626e+01    5.985973e+00
  1.915421e+01    6.190772e+00
  1.916216e+01    6.374124e+00
  1.917011e+01    6.288324e+00
  1.917807e+01    5.989532e+00
  1.918602e+01    6.020455e+00
  1.919397e+01    5.988966e+00
  1.920192e+01    5.930277e+00
  1.920988e+01    5.744827e+00
  1.921783e+01    5.837112e+00
  1.922578e+01    5.882830e+00
  1.923374e+01    5.791904e+00
  1.924169e+01    5.630507e+00
  1.924964e+01    5.678932e+00
  1.925759e+01    5.847959e+00
  1.926555e+01    6.046619e+00
  1.927350e+01    5.960223e+00
  1.928145e+01    5.657802e+00
  1.928941e+01    5.726283e+00
  1.929736e+01    5.974647e+00
  1.930531e+01    5.822285e+00
  1.931326e+01    5.646894e+00
  1.932122e+01    5.560668e+00
  1.932917e+01    6.000628e+00
  1.933712e+01    5.949176e+00
  1.934507e+01    5.967841e+00
  1.935303e+01    5.693902e+00
  1.936098e+01    5.672825e+00
  1.936893e+01    5.740362e+00
  1.937689e+01    5.854587e+00
  1.938484e+01    5.931658e+00
  1.939279e+01    6.008180e+00
  1.940074e+01    5.859430e+00
  1.940870e+01    5.934544e+00
  1.941665e+01    5.785698e+00
  1.942460e+01    5.682895e+00
  1.943255e+01    5.342399e+00
  1.944051e+01    5.323839e+00
  1.944846e+01    5.319206e+00
  1.945641e+01    5.274031e+00
  1.946437e+01    5.107314e+00
  1.947232e+01    5.394621e+00
  1.948027e+01    5.711887e+00
  1.948822e+01    6.078010e+00
  1.949618e+01    5.895736e+00
  1.950413e+01    5.896434e+00
  1.951208e+01    5.885234e+00
  1.952004e+01    5.837219e+00
  1.952799e+01    5.802808e+00
  1.953594e+01    6.247662e+00
  1.954389e+01    6.538480e+00
  1.955185e+01    6.512096e+00
  1.955980e+01    6.057242e+00
  1.956775e+01    5.874155e+00
  1.957570e+01    5.659838e+00
  1.958366e+01    5.595754e+00
  1.959161e+01    5.826810e+00
  1.959956e+01    5.886325e+00
  1.960752e+01    6.174818e+00
  1.961547e+01    6.515842e+00
  1.962342e+01    6.886595e+00
  1.963137e+01    6.507617e+00
  1.963933e+01    6.033848e+00
  1.964728e+01    5.926455e+00
  1.965523e+01    6.245954e+00
  1.966318e+01    6.203257e+00
  1.967114e+01    5.756228e+00
  1.967909e+01    5.189450e+00
  1.968704e+01    4.935627e+00
  1.969500e+01    5.188874e+00
  1.970295e+01    5.487476e+00
  1.971090e+01    6.258117e+00
  1.971885e+01    6.601283e+00
  1.972681e+01    6.768384e+00
  1.973476e+01    6.820803e+00
  1.974271e+01    6.487845e+00
  1.975067e+01    5.636029e+00
  1.975862e+01    5.166350e+00
  1.976657e+01    5.259864e+00
  1.977452e+01    5.563683e+00
  1.978248e+01    5.961085e+00
  1.979043e+01    6.711502e+00
  1.979838e+01    6.766101e+00
  1.980633e+01    6.467995e+00
  1.981429e+01    5.946300e+00
  1.982224e+01    5.941153e+00
  1.983019e+01    5.797546e+00
  1.983815e+01    5.540442e+00
  1.984610e+01    6.031456e+00
  1.985405e+01    6.382027e+00
  1.986200e+01    6.672645e+00
  1.986996e+01    6.439917e+00
  1.987791e+01    7.027515e+00
